timestamp_ms,emg_raw,lead_off
0,317,0
0,294,0
1,278,0
1,264,0
2,252,0
2,242,0
2,233,0
3,224,0
3,217,0
4,209,0
4,196,0
5,187,0
7,178,0
8,171,0
8,167,0
9,158,0
10,151,0
11,144,0
11,140,0
12,137,0
13,136,0
14,134,0
15,132,0
16,128,0
16,126,0
17,125,0
18,124,0
19,125,0
20,130,0
21,132,0
21,134,0
22,131,0
23,131,0
24,130,0
25,128,0
26,127,0
26,128,0
27,126,0
28,125,0
29,121,0
30,117,0
31,116,0
31,115,0
32,116,0
33,117,0
34,120,0
35,122,0
36,123,0
36,124,0
37,126,0
38,127,0
39,131,0
40,134,0
41,136,0
41,136,0
42,133,0
43,132,0
44,130,0
45,128,0
46,126,0
46,124,0
47,124,0
49,121,0
50,116,0
51,114,0
51,112,0
52,113,0
53,113,0
54,115,0
55,118,0
56,120,0
56,120,0
57,121,0
58,123,0
59,126,0
60,130,0
61,134,0
61,134,0
62,133,0
63,130,0
64,128,0
65,127,0
66,125,0
66,124,0
67,122,0
68,122,0
69,118,0
70,114,0
71,110,0
71,111,0
72,112,0
73,114,0
74,115,0
75,118,0
76,119,0
76,120,0
77,121,0
78,123,0
79,127,0
80,130,0
81,133,0
81,133,0
82,131,0
83,129,0
84,127,0
85,126,0
86,124,0
86,122,0
87,122,0
88,120,0
89,116,0
90,111,0
90,110,0
92,112,0
93,112,0
94,114,0
95,116,0
96,118,0
96,119,0
97,119,0
98,120,0
99,125,0
100,129,0
101,131,0
102,133,0
103,130,0
103,129,0
104,127,0
105,124,0
106,122,0
107,122,0
108,121,0
109,117,0
110,113,0
111,111,0
112,109,0
113,111,0
113,114,0
114,117,0
115,118,0
116,120,0
117,121,0
118,122,0
119,127,0
120,131,0
121,132,0
122,132,0
123,130,0
124,128,0
124,125,0
125,123,0
126,122,0
127,121,0
128,118,0
129,114,0
130,111,0
131,111,0
132,112,0
133,114,0
135,115,0
135,118,0
136,118,0
137,120,0
138,121,0
139,125,0
140,130,0
141,132,0
142,131,0
143,129,0
144,128,0
145,125,0
146,124,0
146,123,0
147,121,0
148,120,0
149,115,0
150,110,0
151,109,0
152,110,0
153,112,0
154,114,0
155,116,0
156,117,0
156,119,0
157,119,0
158,122,0
159,128,0
160,131,0
161,132,0
162,131,0
163,128,0
164,125,0
165,124,0
166,122,0
167,122,0
167,121,0
168,118,0
169,112,0
170,109,0
171,109,0
172,110,0
173,112,0
174,115,0
175,118,0
177,118,0
178,118,0
178,119,0
179,123,0
180,125,0
181,126,0
182,124,0
183,119,0
184,112,0
185,102,0
186,154,0
187,156,0
188,146,0
189,140,0
189,134,0
190,128,0
191,124,0
192,124,0
193,125,0
194,127,0
195,128,0
196,129,0
197,130,0
198,130,0
199,133,0
199,136,0
200,135,0
201,130,0
202,121,0
203,114,0
204,107,0
205,102,0
206,100,0
207,100,0
208,100,0
209,97,0
209,96,0
210,95,0
211,98,0
212,101,0
213,105,0
214,109,0
215,113,0
216,116,0
217,120,0
217,121,0
218,126,0
220,131,0
221,133,0
222,133,0
223,132,0
224,130,0
225,128,0
226,126,0
227,124,0
228,121,0
228,121,0
229,116,0
230,112,0
231,111,0
232,112,0
233,113,0
234,114,0
235,117,0
236,119,0
237,120,0
238,121,0
239,125,0
239,129,0
240,133,0
241,132,0
242,130,0
243,129,0
244,126,0
245,125,0
246,123,0
247,121,0
248,121,0
249,116,0
249,112,0
250,110,0
251,109,0
252,111,0
253,113,0
254,116,0
255,118,0
256,118,0
257,119,0
258,121,0
259,125,0
260,131,0
260,132,0
261,131,0
263,129,0
264,127,0
265,124,0
266,123,0
267,121,0
268,121,0
269,119,0
270,114,0
271,111,0
271,109,0
272,110,0
273,111,0
274,114,0
275,116,0
276,118,0
277,120,0
278,121,0
279,125,0
280,128,0
281,130,0
282,132,0
282,130,0
283,128,0
284,126,0
285,124,0
286,123,0
287,122,0
288,120,0
289,116,0
290,112,0
291,110,0
292,110,0
292,112,0
293,114,0
294,116,0
295,118,0
296,119,0
297,120,0
298,123,0
299,127,0
300,131,0
301,132,0
302,131,0
303,129,0
303,127,0
305,125,0
306,123,0
307,122,0
308,121,0
309,118,0
310,112,0
311,109,0
312,109,0
313,111,0
314,113,0
314,115,0
315,117,0
316,118,0
317,119,0
318,120,0
319,125,0
320,129,0
321,132,0
322,132,0
323,130,0
324,128,0
325,125,0
325,122,0
326,121,0
327,121,0
328,120,0
329,115,0
330,111,0
331,109,0
332,109,0
333,111,0
334,113,0
335,116,0
335,118,0
336,120,0
337,121,0
338,123,0
339,128,0
340,130,0
341,131,0
342,130,0
343,128,0
344,126,0
345,124,0
346,122,0
346,121,0
348,119,0
349,116,0
350,112,0
351,110,0
352,110,0
353,111,0
354,112,0
355,114,0
356,116,0
357,117,0
357,120,0
358,122,0
359,126,0
360,130,0
361,132,0
362,131,0
363,129,0
364,128,0
365,128,0
366,126,0
367,125,0
368,123,0
368,121,0
369,116,0
370,112,0
371,111,0
372,113,0
373,115,0
374,117,0
375,120,0
376,122,0
377,122,0
378,124,0
378,128,0
379,134,0
380,136,0
381,136,0
382,134,0
383,132,0
384,130,0
385,128,0
386,128,0
387,126,0
388,125,0
389,120,0
389,117,0
391,115,0
392,115,0
393,117,0
394,119,0
395,122,0
396,123,0
397,124,0
398,126,0
399,128,0
400,133,0
400,137,0
401,137,0
402,136,0
403,134,0
404,133,0
405,130,0
406,129,0
407,127,0
408,125,0
409,122,0
410,118,0
411,116,0
411,116,0
412,117,0
413,119,0
414,121,0
415,122,0
416,124,0
417,126,0
418,128,0
419,132,0
420,136,0
421,138,0
421,137,0
422,134,0
423,132,0
424,131,0
425,129,0
426,128,0
427,127,0
428,125,0
429,120,0
430,116,0
431,115,0
433,116,0
433,119,0
434,121,0
435,123,0
436,125,0
437,125,0
438,126,0
439,129,0
440,135,0
441,138,0
442,138,0
443,136,0
443,134,0
444,132,0
445,129,0
446,127,0
447,128,0
448,127,0
449,122,0
450,118,0
451,115,0
452,115,0
453,117,0
454,119,0
454,122,0
455,124,0
456,125,0
457,126,0
458,128,0
459,133,0
460,136,0
461,138,0
462,137,0
463,136,0
464,133,0
464,131,0
465,129,0
466,127,0
467,126,0
468,123,0
469,119,0
470,116,0
471,115,0
472,117,0
473,119,0
474,121,0
476,123,0
476,124,0
477,126,0
478,128,0
479,132,0
480,136,0
481,137,0
482,138,0
483,136,0
484,133,0
485,132,0
486,130,0
486,129,0
487,128,0
488,126,0
489,122,0
490,117,0
491,116,0
492,117,0
493,118,0
494,121,0
495,123,0
496,125,0
497,126,0
497,128,0
498,131,0
499,135,0
500,138,0
501,139,0
502,136,0
503,135,0
504,132,0
505,130,0
506,129,0
507,128,0
507,128,0
508,124,0
509,119,0
510,116,0
511,115,0
512,117,0
513,119,0
514,122,0
515,124,0
516,125,0
517,126,0
519,127,0
519,133,0
520,136,0
521,138,0
522,138,0
523,136,0
524,133,0
525,132,0
526,129,0
527,128,0
528,126,0
529,125,0
529,120,0
530,117,0
531,116,0
532,117,0
533,119,0
534,120,0
535,122,0
536,124,0
537,126,0
538,128,0
539,131,0
540,135,0
540,137,0
541,138,0
542,136,0
543,133,0
544,132,0
545,130,0
546,128,0
547,127,0
548,126,0
549,121,0
550,117,0
550,115,0
551,116,0
552,118,0
553,120,0
554,123,0
555,125,0
556,124,0
557,126,0
558,128,0
559,134,0
561,138,0
562,139,0
562,138,0
563,136,0
564,132,0
565,130,0
566,128,0
567,128,0
568,127,0
569,124,0
570,119,0
571,117,0
572,116,0
572,117,0
573,119,0
574,121,0
575,124,0
576,125,0
577,127,0
578,127,0
579,132,0
580,135,0
581,137,0
582,138,0
583,136,0
583,134,0
584,132,0
585,130,0
586,129,0
587,128,0
588,125,0
589,121,0
590,118,0
591,116,0
592,117,0
593,118,0
593,121,0
594,123,0
595,125,0
596,127,0
597,128,0
598,130,0
599,135,0
600,138,0
601,139,0
602,137,0
604,135,0
605,133,0
605,131,0
606,130,0
607,128,0
608,127,0
609,123,0
610,118,0
611,116,0
612,116,0
613,118,0
614,119,0
615,122,0
615,124,0
616,125,0
617,126,0
618,128,0
619,134,0
620,138,0
621,139,0
622,138,0
623,135,0
624,133,0
625,131,0
626,129,0
626,128,0
627,127,0
628,125,0
629,120,0
630,117,0
631,115,0
632,116,0
633,119,0
634,122,0
635,124,0
636,125,0
636,126,0
637,126,0
638,131,0
639,136,0
640,137,0
641,139,0
642,136,0
643,134,0
644,132,0
645,130,0
647,128,0
648,128,0
648,126,0
649,121,0
650,118,0
651,116,0
652,116,0
653,117,0
654,119,0
655,121,0
656,123,0
657,126,0
658,127,0
658,129,0
659,134,0
660,137,0
661,137,0
662,135,0
663,134,0
664,132,0
665,130,0
666,129,0
667,128,0
668,125,0
669,121,0
669,117,0
670,114,0
671,115,0
672,117,0
673,119,0
674,121,0
675,124,0
676,124,0
677,126,0
678,128,0
679,133,0
679,137,0
680,139,0
681,135,0
682,130,0
683,122,0
684,116,0
685,108,0
686,141,0
687,185,0
689,220,0
690,243,0
691,252,0
691,231,0
692,206,0
693,192,0
694,182,0
695,174,0
696,167,0
697,161,0
698,156,0
699,155,0
700,156,0
701,156,0
701,154,0
702,150,0
703,146,0
704,143,0
705,139,0
706,134,0
707,129,0
708,120,0
709,107,0
710,95,0
711,106,0
711,114,0
712,116,0
713,119,0
714,123,0
715,126,0
716,128,0
717,128,0
718,130,0
719,136,0
720,139,0
721,141,0
721,140,0
722,138,0
723,134,0
724,130,0
725,124,0
726,117,0
727,111,0
728,104,0
729,95,0
730,91,0
730,89,0
732,89,0
733,90,0
734,93,0
735,96,0
736,99,0
736,103,0
737,106,0
738,108,0
739,115,0
740,121,0
741,124,0
742,125,0
743,124,0
744,123,0
745,121,0
746,120,0
746,119,0
747,118,0
748,117,0
749,113,0
750,109,0
751,108,0
752,109,0
753,110,0
754,112,0
755,115,0
756,117,0
757,118,0
757,118,0
758,122,0
759,126,0
760,128,0
761,129,0
762,128,0
763,126,0
764,124,0
765,121,0
766,120,0
767,118,0
767,117,0
768,113,0
769,108,0
770,106,0
771,107,0
772,108,0
773,110,0
775,113,0
776,114,0
777,115,0
778,116,0
779,119,0
779,125,0
780,128,0
781,129,0
782,128,0
783,125,0
784,123,0
785,121,0
786,120,0
787,119,0
788,117,0
789,115,0
789,110,0
790,107,0
791,106,0
792,108,0
793,109,0
794,112,0
795,114,0
796,115,0
797,117,0
798,117,0
799,122,0
800,127,0
800,129,0
801,129,0
802,127,0
803,124,0
804,123,0
805,120,0
806,119,0
807,117,0
808,116,0
809,113,0
810,109,0
810,107,0
811,107,0
812,108,0
813,110,0
814,112,0
815,114,0
817,116,0
818,118,0
819,120,0
820,125,0
821,128,0
822,129,0
822,127,0
823,126,0
824,123,0
825,121,0
826,120,0
827,118,0
828,118,0
829,113,0
830,109,0
831,107,0
832,108,0
832,108,0
833,110,0
834,111,0
835,113,0
836,115,0
837,116,0
838,118,0
839,123,0
840,128,0
841,130,0
842,128,0
843,126,0
843,123,0
844,122,0
845,120,0
846,119,0
847,118,0
848,116,0
849,110,0
850,107,0
851,106,0
852,107,0
853,109,0
853,112,0
854,114,0
855,116,0
856,117,0
857,116,0
858,120,0
860,125,0
861,128,0
862,129,0
863,128,0
864,126,0
865,123,0
865,120,0
866,119,0
867,118,0
868,117,0
869,113,0
870,109,0
871,107,0
872,106,0
873,108,0
874,110,0
875,112,0
875,115,0
876,116,0
877,117,0
878,120,0
879,124,0
880,128,0
881,131,0
882,129,0
883,129,0
884,128,0
885,126,0
886,125,0
886,124,0
887,122,0
888,120,0
889,115,0
890,112,0
891,112,0
892,114,0
893,116,0
894,119,0
895,121,0
896,122,0
896,125,0
897,126,0
898,130,0
899,134,0
900,136,0
901,136,0
903,134,0
904,132,0
905,129,0
906,128,0
907,127,0
908,125,0
908,124,0
909,118,0
910,114,0
911,113,0
912,114,0
913,116,0
914,119,0
915,121,0
916,123,0
917,124,0
918,125,0
918,129,0
919,133,0
920,136,0
921,137,0
922,136,0
923,133,0
924,131,0
925,128,0
926,127,0
927,126,0
928,126,0
929,122,0
929,117,0
930,114,0
931,114,0
932,116,0
933,117,0
934,120,0
935,123,0
936,124,0
937,125,0
938,127,0
939,132,0
939,136,0
940,137,0
941,135,0
942,134,0
943,133,0
945,130,0
946,129,0
947,127,0
948,125,0
949,122,0
950,118,0
951,115,0
951,115,0
952,116,0
953,118,0
954,120,0
955,121,0
956,123,0
957,124,0
958,126,0
959,130,0
960,135,0
961,137,0
961,137,0
962,135,0
963,132,0
964,130,0
965,129,0
966,128,0
967,126,0
968,125,0
969,121,0
970,116,0
971,115,0
972,115,0
972,117,0
973,120,0
974,122,0
975,123,0
976,124,0
977,125,0
978,128,0
979,132,0
980,137,0
981,138,0
982,136,0
982,134,0
983,132,0
984,129,0
985,128,0
986,127,0
988,126,0
989,123,0
990,118,0
991,115,0
992,115,0
993,116,0
994,119,0
994,121,0
995,123,0
996,125,0
997,126,0
998,127,0
999,131,0
1000,136,0
1001,138,0
1002,136,0
1003,134,0
1004,131,0
1005,130,0
1006,128,0
1007,127,0
1008,125,0
1009,121,0
1010,116,0
1011,115,0
1012,116,0
1013,119,0
1014,120,0
1015,123,0
1016,124,0
1017,126,0
1018,128,0
1019,134,0
1020,137,0
1021,138,0
1022,136,0
1023,134,0
1024,132,0
1025,130,0
1026,128,0
1027,127,0
1028,123,0
1029,119,0
1031,116,0
1032,115,0
1033,117,0
1034,119,0
1035,121,0
1036,124,0
1037,125,0
1038,126,0
1039,129,0
1040,136,0
1041,137,0
1042,138,0
1043,135,0
1044,133,0
1045,131,0
1046,129,0
1047,128,0
1048,127,0
1049,121,0
1050,118,0
1051,115,0
1052,117,0
1053,119,0
1054,121,0
1055,122,0
1056,125,0
1057,126,0
1058,128,0
1059,132,0
1060,137,0
1061,137,0
1062,137,0
1063,134,0
1064,132,0
1065,130,0
1066,129,0
1067,127,0
1068,126,0
1069,120,0
1070,117,0
1071,115,0
1073,117,0
1074,118,0
1075,122,0
1076,123,0
1077,126,0
1078,126,0
1079,129,0
1080,135,0
1081,137,0
1082,138,0
1083,136,0
1084,133,0
1085,132,0
1086,128,0
1087,128,0
1088,127,0
1089,123,0
1090,117,0
1091,116,0
1092,116,0
1093,118,0
1094,119,0
1095,122,0
1096,123,0
1097,126,0
1098,127,0
1099,132,0
1100,137,0
1101,139,0
1102,137,0
1103,135,0
1104,132,0
1105,131,0
1106,128,0
1107,128,0
1108,127,0
1109,121,0
1110,117,0
1111,116,0
1112,117,0
1113,119,0
1113,122,0
1114,124,0
1116,124,0
1117,128,0
1118,129,0
1119,134,0
1120,138,0
1121,139,0
1122,136,0
1123,135,0
1124,132,0
1125,130,0
1126,129,0
1127,128,0
1128,124,0
1129,120,0
1130,116,0
1131,116,0
1132,118,0
1133,120,0
1134,122,0
1135,125,0
1136,126,0
1137,128,0
1138,132,0
1139,136,0
1140,138,0
1141,138,0
1142,135,0
1143,134,0
1144,131,0
1145,130,0
1146,129,0
1147,128,0
1148,123,0
1149,118,0
1150,115,0
1151,117,0
1152,119,0
1153,121,0
1154,123,0
1155,126,0
1156,126,0
1157,128,0
1159,134,0
1160,137,0
1161,139,0
1162,137,0
1163,135,0
1164,133,0
1165,130,0
1166,130,0
1167,127,0
1168,126,0
1169,120,0
1170,117,0
1171,116,0
1172,118,0
1173,119,0
1174,123,0
1175,124,0
1176,126,0
1177,127,0
1178,130,0
1179,135,0
1180,138,0
1181,138,0
1182,137,0
1183,134,0
1184,132,0
1185,129,0
1186,129,0
1187,128,0
1188,124,0
1189,118,0
1190,117,0
1191,117,0
1192,119,0
1193,121,0
1194,123,0
1195,126,0
1196,127,0
1197,128,0
1198,133,0
1199,136,0
1201,139,0
1202,137,0
1203,137,0
1204,134,0
1205,131,0
1206,128,0
1207,128,0
1208,126,0
1209,122,0
1210,117,0
1211,116,0
1212,118,0
1213,120,0
1214,121,0
1215,125,0
1216,125,0
1217,128,0
1218,130,0
1219,135,0
1220,138,0
1221,140,0
1222,137,0
1223,135,0
1224,132,0
1225,131,0
1226,130,0
1227,129,0
1228,125,0
1229,121,0
1230,116,0
1231,117,0
1232,118,0
1233,121,0
1234,122,0
1235,125,0
1236,126,0
1237,128,0
1238,131,0
1239,137,0
1240,137,0
1241,138,0
1242,135,0
1244,134,0
1245,131,0
1246,130,0
1247,128,0
1248,128,0
1249,122,0
1250,119,0
1251,116,0
1252,117,0
1253,119,0
1254,122,0
1255,123,0
1256,126,0
1257,127,0
1258,128,0
1259,134,0
1260,138,0
1261,139,0
1262,139,0
1263,136,0
1264,134,0
1265,129,0
1266,128,0
1267,128,0
1268,125,0
1269,119,0
1270,114,0
1271,107,0
1272,99,0
1273,140,0
1274,165,0
1275,151,0
1276,146,0
1277,145,0
1278,144,0
1279,147,0
1280,148,0
1281,148,0
1282,144,0
1283,141,0
1284,137,0
1285,135,0
1287,133,0
1288,130,0
1289,119,0
1290,106,0
1291,92,0
1292,128,0
1293,125,0
1294,124,0
1295,127,0
1296,128,0
1297,131,0
1298,131,0
1299,134,0
1300,139,0
1301,141,0
1302,141,0
1303,139,0
1304,135,0
1305,133,0
1306,125,0
1307,116,0
1308,104,0
1309,128,0
1310,121,0
1311,118,0
1312,118,0
1313,121,0
1314,122,0
1315,126,0
1316,127,0
1317,129,0
1318,130,0
1319,135,0
1320,138,0
1321,141,0
1322,137,0
1323,131,0
1324,121,0
1325,111,0
1326,102,0
1327,96,0
1327,133,0
1329,124,0
1330,120,0
1331,119,0
1332,121,0
1333,122,0
1334,124,0
1335,127,0
1336,128,0
1337,129,0
1338,131,0
1339,137,0
1340,139,0
1341,137,0
1342,128,0
1343,118,0
1344,108,0
1345,99,0
1346,117,0
1347,116,0
1348,117,0
1349,114,0
1350,114,0
1351,115,0
1352,117,0
1353,119,0
1354,123,0
1355,124,0
1356,126,0
1357,127,0
1358,131,0
1359,135,0
1360,135,0
1361,129,0
1362,123,0
1363,115,0
1364,111,0
1365,105,0
1366,104,0
1367,103,0
1368,99,0
1369,96,0
1370,95,0
1372,95,0
1373,98,0
1374,102,0
1375,106,0
1376,109,0
1377,111,0
1378,114,0
1379,119,0
1380,124,0
1381,127,0
1382,128,0
1383,127,0
1384,123,0
1385,122,0
1386,120,0
1387,119,0
1388,118,0
1389,114,0
1390,108,0
1391,107,0
1392,108,0
1393,110,0
1394,112,0
1395,114,0
1396,116,0
1397,117,0
1398,118,0
1399,123,0
1400,126,0
1401,129,0
1402,127,0
1403,126,0
1404,123,0
1405,121,0
1406,118,0
1407,118,0
1408,115,0
1409,111,0
1410,107,0
1411,106,0
1412,107,0
1413,109,0
1415,111,0
1416,114,0
1417,115,0
1418,118,0
1419,119,0
1420,125,0
1421,128,0
1422,129,0
1423,126,0
1424,124,0
1425,122,0
1426,120,0
1427,119,0
1428,118,0
1429,114,0
1430,109,0
1431,106,0
1432,107,0
1433,109,0
1434,111,0
1435,113,0
1436,115,0
1437,117,0
1438,118,0
1439,123,0
1439,127,0
1440,129,0
1441,129,0
1442,125,0
1443,125,0
1444,121,0
1445,120,0
1446,119,0
1447,118,0
1448,112,0
1449,109,0
1450,106,0
1451,108,0
1452,110,0
1453,112,0
1454,114,0
1455,116,0
1457,116,0
1458,119,0
1459,124,0
1460,128,0
1461,129,0
1462,128,0
1463,124,0
1464,123,0
1465,120,0
1466,119,0
1467,117,0
1468,116,0
1469,109,0
1470,107,0
1471,106,0
1472,109,0
1473,110,0
1474,114,0
1475,115,0
1476,117,0
1477,117,0
1478,121,0
1479,126,0
1480,129,0
1481,128,0
1482,127,0
1483,123,0
1484,122,0
1485,119,0
1486,119,0
1487,118,0
1488,113,0
1489,108,0
1490,107,0
1491,107,0
1492,109,0
1493,111,0
1494,113,0
1495,115,0
1496,117,0
1497,118,0
1498,123,0
1500,127,0
1501,130,0
1502,128,0
1503,126,0
1504,124,0
1505,121,0
1506,118,0
1507,118,0
1508,116,0
1509,112,0
1510,107,0
1511,107,0
1512,108,0
1513,109,0
1514,111,0
1515,113,0
1516,112,0
1517,111,0
1518,109,0
1519,108,0
1520,156,0
1521,205,0
1522,238,0
1523,265,0
1524,285,0
1525,301,0
1526,313,0
1527,325,0
1528,333,0
1529,330,0
1530,327,0
1531,271,0
1532,241,0
1533,222,0
1534,206,0
1535,195,0
1536,184,0
1537,175,0
1538,172,0
1539,171,0
1540,167,0
1541,163,0
1543,157,0
1544,152,0
1545,147,0
1546,141,0
1547,132,0
1548,124,0
1549,110,0
1550,100,0
1551,93,0
1552,92,0
1553,94,0
1554,96,0
1555,100,0
1556,103,0
1557,108,0
1558,111,0
1559,119,0
1560,125,0
1561,130,0
1562,130,0
1563,129,0
1564,127,0
1565,126,0
1566,124,0
1567,124,0
1568,122,0
1569,118,0
1570,113,0
1571,112,0
1572,113,0
1573,115,0
1574,117,0
1575,120,0
1576,120,0
1577,123,0
1578,123,0
1579,129,0
1580,131,0
1581,133,0
1582,130,0
1583,129,0
1585,125,0
1586,125,0
1587,122,0
1588,121,0
1589,118,0
1590,113,0
1591,110,0
1592,109,0
1593,110,0
1594,114,0
1595,116,0
1596,118,0
1597,118,0
1598,121,0
1599,123,0
1600,129,0
1601,131,0
1602,131,0
1603,129,0
1604,127,0
1605,123,0
1606,122,0
1607,120,0
1608,120,0
1609,116,0
1610,111,0
1611,109,0
1612,110,0
1613,112,0
1613,114,0
1614,116,0
1615,118,0
1616,119,0
1617,121,0
1618,125,0
1619,130,0
1620,131,0
1621,130,0
1622,128,0
1623,125,0
1624,122,0
1625,122,0
1626,120,0
1628,119,0
1629,114,0
1630,110,0
1631,107,0
1632,110,0
1633,111,0
1634,114,0
1635,115,0
1636,118,0
1637,119,0
1638,122,0
1639,126,0
1640,130,0
1641,130,0
1642,128,0
1643,126,0
1644,123,0
1645,121,0
1646,121,0
1647,119,0
1648,117,0
1649,110,0
1650,109,0
1651,107,0
1652,110,0
1653,112,0
1654,114,0
1655,116,0
1656,118,0
1657,118,0
1658,124,0
1659,128,0
1660,130,0
1661,129,0
1662,127,0
1663,125,0
1664,123,0
1665,121,0
1666,119,0
1667,118,0
1668,114,0
1669,108,0
1671,107,0
1672,108,0
1673,111,0
1674,113,0
1675,114,0
1676,117,0
1677,118,0
1678,120,0
1679,125,0
1680,128,0
1681,130,0
1682,127,0
1683,126,0
1684,122,0
1685,122,0
1686,120,0
1687,119,0
1688,116,0
1689,111,0
1690,107,0
1691,108,0
1692,109,0
1693,112,0
1694,113,0
1695,116,0
1696,116,0
1697,119,0
1698,122,0
1699,128,0
1700,129,0
1701,130,0
1702,127,0
1703,126,0
1704,124,0
1705,123,0
1706,122,0
1707,122,0
1708,117,0
1709,114,0
1710,111,0
1711,112,0
1713,112,0
1714,116,0
1715,117,0
1716,120,0
1717,121,0
1718,123,0
1719,128,0
1720,133,0
1721,135,0
1722,134,0
1723,132,0
1724,130,0
1725,128,0
1726,126,0
1727,124,0
1728,123,0
1729,117,0
1730,115,0
1731,114,0
1732,115,0
1733,116,0
1734,119,0
1735,121,0
1736,123,0
1737,124,0
1738,128,0
1739,132,0
1740,135,0
1741,136,0
1742,134,0
1743,131,0
1744,130,0
1745,127,0
1746,126,0
1747,124,0
1748,121,0
1749,116,0
1750,114,0
1751,113,0
1752,116,0
1753,117,0
1754,120,0
1756,121,0
1757,123,0
1758,124,0
1759,129,0
1760,134,0
1761,137,0
1762,134,0
1763,133,0
1764,130,0
1765,129,0
1766,126,0
1767,126,0
1768,124,0
1769,120,0
1770,115,0
1771,115,0
1772,115,0
1773,117,0
1774,119,0
1775,122,0
1776,123,0
1777,125,0
1778,127,0
1779,133,0
1780,137,0
1781,138,0
1782,135,0
1783,134,0
1784,130,0
1785,130,0
1786,127,0
1787,127,0
1788,123,0
1789,119,0
1790,115,0
1791,116,0
1792,116,0
1793,119,0
1794,121,0
1795,123,0
1796,125,0
1797,127,0
1799,129,0
1800,135,0
1801,137,0
1802,137,0
1803,134,0
1804,133,0
1805,130,0
1806,128,0
1807,125,0
1808,126,0
1809,120,0
1810,116,0
1811,113,0
1812,115,0
1813,115,0
1814,119,0
1815,120,0
1816,123,0
1817,124,0
1818,126,0
1819,130,0
1820,135,0
1821,137,0
1822,135,0
1823,133,0
1824,131,0
1825,129,0
1826,128,0
1827,126,0
1828,125,0
1829,120,0
1830,117,0
1831,115,0
1832,116,0
1833,118,0
1834,121,0
1835,122,0
1836,125,0
1837,125,0
1838,129,0
1839,134,0
1841,137,0
1842,137,0
1843,135,0
1844,132,0
1845,131,0
1846,128,0
1847,128,0
1848,125,0
1849,123,0
1850,117,0
1851,115,0
1852,116,0
1853,118,0
1854,119,0
1855,122,0
1856,123,0
1857,125,0
1858,126,0
1859,131,0
1860,136,0
1861,138,0
1862,136,0
1863,135,0
1864,131,0
1865,131,0
1866,128,0
1867,127,0
1868,126,0
1869,122,0
1870,117,0
1871,116,0
1872,116,0
1873,119,0
1874,121,0
1874,123,0
1875,126,0
1876,127,0
1877,127,0
1878,134,0
1879,136,0
1880,138,0
1881,136,0
1882,135,0
1884,131,0
1885,130,0
1886,128,0
1887,128,0
1888,124,0
1889,120,0
1890,116,0
1891,116,0
1892,118,0
1893,119,0
1894,121,0
1895,124,0
1896,124,0
1897,127,0
1898,130,0
1899,136,0
1900,138,0
1901,138,0
1902,135,0
1903,133,0
1904,130,0
1905,129,0
1906,127,0
1907,127,0
1908,122,0
1909,118,0
1910,115,0
1911,116,0
1912,117,0
1913,120,0
1914,122,0
1915,124,0
1916,125,0
1917,128,0
1918,132,0
1919,136,0
1920,137,0
1921,136,0
1922,134,0
1923,132,0
1924,129,0
1925,128,0
1927,126,0
1928,126,0
1929,120,0
1930,117,0
1931,116,0
1932,117,0
1933,119,0
1934,122,0
1935,123,0
1936,126,0
1937,126,0
1938,129,0
1939,135,0
1940,138,0
1941,138,0
1942,137,0
1943,134,0
1944,132,0
1945,129,0
1946,128,0
1947,128,0
1948,124,0
1949,118,0
1950,117,0
1951,117,0
1952,118,0
1953,121,0
1954,123,0
1955,125,0
1956,127,0
1957,126,0
1958,132,0
1959,136,0
1960,139,0
1961,137,0
1962,136,0
1963,133,0
1964,131,0
1965,128,0
1966,128,0
1967,126,0
1969,123,0
1970,117,0
1971,117,0
1972,118,0
1973,119,0
1974,122,0
1975,125,0
1976,125,0
1977,128,0
1978,129,0
1979,135,0
1980,138,0
1981,139,0
1982,137,0
1983,136,0
1984,133,0
1985,131,0
1986,129,0
1987,128,0
1988,125,0
1989,121,0
1990,116,0
1991,117,0
1992,118,0
1993,121,0
1994,122,0
1995,125,0
1996,126,0
1997,128,0
1998,131,0
1999,136,0
2000,138,0
2001,140,0
2002,136,0
2003,135,0
2004,131,0
2005,131,0
2006,129,0
2007,129,0
2008,123,0
2009,120,0
2010,116,0
2012,117,0
2013,119,0
2014,121,0
2015,123,0
2016,126,0
2017,126,0
2018,128,0
2019,133,0
2020,137,0
2021,139,0
2022,138,0
2023,135,0
2024,134,0
2025,131,0
2026,130,0
2027,128,0
2028,127,0
2029,121,0
2030,118,0
2031,116,0
2032,118,0
2033,120,0
2034,122,0
2035,123,0
2036,125,0
2037,126,0
2038,130,0
2039,134,0
2040,138,0
2041,138,0
2042,136,0
2043,134,0
2044,132,0
2045,129,0
2046,129,0
2047,127,0
2048,125,0
2049,118,0
2050,117,0
2051,117,0
2052,118,0
2053,120,0
2055,123,0
2056,125,0
2057,127,0
2058,127,0
2059,133,0
2060,136,0
2061,137,0
2062,130,0
2063,125,0
2064,116,0
2065,107,0
2066,157,0
2067,204,0
2068,237,0
2069,260,0
2070,267,0
2071,243,0
2072,212,0
2073,197,0
2074,185,0
2075,176,0
2076,169,0
2077,163,0
2078,158,0
2079,158,0
2080,158,0
2081,157,0
2082,152,0
2083,148,0
2084,144,0
2085,140,0
2086,136,0
2087,127,0
2088,114,0
2089,101,0
2090,114,0
2091,115,0
2092,117,0
2093,122,0
2094,124,0
2095,128,0
2097,128,0
2098,131,0
2099,132,0
2100,138,0
2101,140,0
2102,141,0
2103,138,0
2104,135,0
2105,129,0
2106,122,0
2107,114,0
2108,108,0
2109,99,0
2110,92,0
2110,88,0
2111,87,0
2112,90,0
2113,93,0
2114,96,0
2115,99,0
2116,102,0
2117,107,0
2118,109,0
2119,116,0
2120,122,0
2121,125,0
2122,124,0
2123,123,0
2124,122,0
2125,120,0
2126,118,0
2127,119,0
2128,115,0
2129,112,0
2130,108,0
2131,108,0
2132,110,0
2133,112,0
2134,114,0
2135,116,0
2136,118,0
2137,119,0
2138,121,0
2140,128,0
2141,129,0
2142,129,0
2143,127,0
2144,125,0
2145,122,0
2146,120,0
2147,119,0
2148,118,0
2149,113,0
2150,109,0
2151,106,0
2152,107,0
2153,109,0
2154,112,0
2155,113,0
2156,116,0
2157,116,0
2158,118,0
2159,123,0
2160,128,0
2161,128,0
2162,127,0
2163,125,0
2164,122,0
2165,120,0
2166,119,0
2167,118,0
2168,115,0
2169,110,0
2170,107,0
2171,105,0
2172,108,0
2173,110,0
2174,112,0
2175,113,0
2176,115,0
2177,116,0
2178,120,0
2179,125,0
2180,129,0
2181,128,0
2183,127,0
2184,124,0
2185,122,0
2186,119,0
2187,118,0
2188,118,0
2189,114,0
2190,109,0
2191,107,0
2192,107,0
2193,109,0
2194,112,0
2195,114,0
2196,116,0
2197,117,0
2198,116,0
2199,122,0
2200,127,0
2201,130,0
2202,128,0
2203,127,0
2204,124,0
2205,121,0
2206,119,0
2207,119,0
2208,118,0
2209,113,0
2210,107,0
2211,107,0
2212,108,0
2213,110,0
2214,113,0
2215,114,0
2216,115,0
2217,117,0
2218,120,0
2219,125,0
2220,129,0
2221,129,0
2222,128,0
2222,125,0
2223,123,0
2225,121,0
2226,119,0
2227,119,0
2228,116,0
2229,111,0
2230,107,0
2231,107,0
2232,109,0
2233,111,0
2234,113,0
2235,115,0
2236,116,0
2237,118,0
2238,122,0
2239,127,0
2240,128,0
2241,128,0
2242,126,0
2243,124,0
2244,122,0
2245,121,0
2246,119,0
2247,119,0
2248,113,0
2249,110,0
2250,106,0
2251,108,0
2252,110,0
2253,112,0
2254,113,0
2255,116,0
2256,117,0
2257,119,0
2258,124,0
2259,129,0
2260,131,0
2261,131,0
2262,130,0
2263,129,0
2264,126,0
2265,125,0
2266,123,0
2268,122,0
2269,116,0
2270,113,0
2271,112,0
2272,114,0
2273,116,0
2274,119,0
2275,121,0
2276,123,0
2277,125,0
2278,128,0
2279,133,0
2280,137,0
2281,137,0
2282,135,0
2283,132,0
2284,130,0
2285,128,0
2286,126,0
2287,124,0
2288,122,0
2289,117,0
2290,114,0
2291,115,0
2292,117,0
2293,118,0
2294,122,0
2295,123,0
2296,125,0
2297,125,0
2298,131,0
2299,135,0
2300,137,0
2301,136,0
2302,135,0
2303,131,0
2304,130,0
2305,128,0
2306,126,0
2307,125,0
2308,121,0
2309,116,0
2311,115,0
2312,116,0
2313,118,0
2314,120,0
2315,123,0
2316,123,0
2317,125,0
2318,127,0
2319,133,0
2320,136,0
2321,138,0
2322,135,0
2323,134,0
2324,130,0
2325,128,0
2326,127,0
2327,126,0
2328,123,0
2329,119,0
2330,115,0
2331,115,0
2332,116,0
2333,119,0
2334,121,0
2335,124,0
2336,124,0
2337,126,0
2338,129,0
2339,135,0
2340,136,0
2341,137,0
2342,134,0
2343,133,0
2344,130,0
2345,128,0
2346,126,0
2347,126,0
2348,121,0
2349,117,0
2350,115,0
2351,116,0
2353,117,0
2354,120,0
2355,121,0
2356,124,0
2357,125,0
2358,127,0
2359,132,0
2360,137,0
2361,138,0
2362,137,0
2363,134,0
2364,132,0
2365,129,0
2366,129,0
2367,127,0
2368,126,0
2369,120,0
2370,117,0
2371,115,0
2372,118,0
2373,119,0
2374,122,0
2375,123,0
2376,126,0
2377,126,0
2378,130,0
2379,135,0
2380,138,0
2381,137,0
2382,136,0
2383,134,0
2384,132,0
2385,129,0
2386,128,0
2387,126,0
2388,124,0
2389,118,0
2390,116,0
2391,116,0
2392,118,0
2393,120,0
2394,123,0
2396,125,0
2397,126,0
2398,126,0
2399,131,0
2400,136,0
2401,139,0
2402,137,0
2403,136,0
2404,132,0
2405,131,0
2406,128,0
2407,128,0
2408,126,0
2409,122,0
2410,117,0
2411,116,0
2412,117,0
2413,120,0
2414,122,0
2415,124,0
2416,125,0
2417,127,0
2418,128,0
2419,134,0
2420,137,0
2421,139,0
2422,137,0
2423,135,0
2424,133,0
2425,130,0
2426,128,0
2427,128,0
2428,125,0
2429,121,0
2430,117,0
2431,117,0
2432,118,0
2433,120,0
2434,121,0
2435,124,0
2436,125,0
2437,128,0
2439,131,0
2440,136,0
2441,138,0
2442,139,0
2443,136,0
2444,134,0
2445,131,0
2446,129,0
2447,129,0
2448,128,0
2449,123,0
2450,119,0
2451,116,0
2452,117,0
2453,119,0
2454,121,0
2455,122,0
2456,125,0
2457,126,0
2458,128,0
2459,133,0
2460,137,0
2461,138,0
2462,137,0
2463,135,0
2464,133,0
2465,130,0
2466,129,0
2467,128,0
2468,126,0
2469,120,0
2470,117,0
2471,115,0
2472,118,0
2473,119,0
2474,122,0
2475,124,0
2476,126,0
2477,127,0
2478,130,0
2479,135,0
2481,138,0
2482,138,0
2483,137,0
2484,134,0
2484,132,0
2485,130,0
2486,128,0
2487,127,0
2488,124,0
2489,118,0
2490,116,0
2491,116,0
2492,118,0
2493,119,0
2494,122,0
2495,124,0
2496,127,0
2497,127,0
2498,132,0
2499,136,0
2500,138,0
2501,137,0
2502,136,0
2503,132,0
2504,131,0
2505,128,0
2506,128,0
2507,126,0
2508,122,0
2509,117,0
2510,116,0
2511,117,0
2512,118,0
2513,121,0
2514,123,0
2515,124,0
2516,127,0
2517,128,0
2518,133,0
2519,136,0
2520,138,0
2521,136,0
2522,135,0
2524,133,0
2525,130,0
2526,128,0
2527,128,0
2528,124,0
2529,121,0
2530,116,0
2531,116,0
2532,117,0
2533,120,0
2534,122,0
2535,124,0
2536,125,0
2537,127,0
2538,130,0
2539,136,0
2540,138,0
2541,138,0
2542,135,0
2543,134,0
2544,131,0
2545,130,0
2546,128,0
2547,128,0
2548,123,0
2549,119,0
2550,115,0
2551,117,0
2552,119,0
2553,121,0
2554,122,0
2555,125,0
2556,126,0
2557,128,0
2558,132,0
2559,137,0
2560,138,0
2561,137,0
2562,135,0
2563,133,0
2564,130,0
2565,129,0
2567,128,0
2568,126,0
2569,120,0
2570,117,0
2571,116,0
2572,117,0
2573,119,0
2574,122,0
2575,123,0
2576,126,0
2577,126,0
2578,129,0
2579,135,0
2580,138,0
2581,138,0
2582,137,0
2583,133,0
2584,132,0
2585,130,0
2586,129,0
2587,128,0
2588,125,0
2589,119,0
2590,117,0
2591,116,0
2592,118,0
2593,121,0
2594,123,0
2595,126,0
2596,126,0
2597,126,0
2598,132,0
2599,135,0
2600,139,0
2601,138,0
2602,136,0
2603,132,0
2604,131,0
2605,128,0
2606,128,0
2607,128,0
2609,123,0
2610,118,0
2611,116,0
2612,117,0
2613,119,0
2614,121,0
2615,124,0
2616,125,0
2617,127,0
2618,127,0
2619,134,0
2620,137,0
2621,139,0
2622,136,0
2623,135,0
2624,131,0
2625,130,0
2626,128,0
2627,128,0
2628,125,0
2629,120,0
2630,116,0
2631,116,0
2632,117,0
2633,120,0
2634,121,0
2635,124,0
2636,125,0
2637,127,0
2638,129,0
2639,135,0
2640,138,0
2641,138,0
2642,135,0
2643,133,0
2644,131,0
2645,130,0
2646,128,0
2647,126,0
2648,122,0
2649,118,0
2650,114,0
2652,115,0
2653,117,0
2654,120,0
2655,121,0
2656,124,0
2657,125,0
2658,128,0
2659,131,0
2660,137,0
2661,138,0
2662,137,0
2663,132,0
2664,127,0
2665,121,0
2666,116,0
2667,108,0
2668,146,0
2669,186,0
2670,210,0
2671,190,0
2672,173,0
2673,165,0
2674,159,0
2675,154,0
2676,151,0
2677,147,0
2678,146,0
2679,148,0
2680,150,0
2681,147,0
2682,145,0
2683,141,0
2684,139,0
2685,135,0
2686,127,0
2687,116,0
2688,104,0
2689,130,0
2690,120,0
2691,117,0
2692,121,0
2693,123,0
2695,125,0
2696,126,0
2697,128,0
2698,128,0
2699,133,0
2700,137,0
2701,140,0
2702,138,0
2703,136,0
2704,129,0
2705,120,0
2706,109,0
2707,101,0
2708,135,0
2709,130,0
2710,123,0
2711,121,0
2712,123,0
2713,124,0
2714,125,0
2715,127,0
2716,128,0
2717,130,0
2718,129,0
2719,135,0
2720,137,0
2721,138,0
2722,133,0
2723,127,0
2724,121,0
2725,115,0
2726,110,0
2727,107,0
2728,104,0
2729,99,0
2729,95,0
2730,94,0
2731,96,0
2732,97,0
2733,101,0
2734,105,0
2735,108,0
2737,110,0
2738,112,0
2739,118,0
2740,122,0
2741,126,0
2742,124,0
2743,123,0
2744,120,0
2745,119,0
2746,117,0
2747,116,0
2748,115,0
2749,110,0
2750,106,0
2751,106,0
2752,106,0
2753,109,0
2754,110,0
2755,113,0
2756,114,0
2757,117,0
2758,118,0
2759,123,0
2760,126,0
2761,128,0
2762,124,0
2763,123,0
2764,121,0
2765,118,0
2766,116,0
2767,115,0
2768,112,0
2769,107,0
2770,104,0
2771,105,0
2772,106,0
2773,109,0
2774,111,0
2775,114,0
2776,113,0
2777,116,0
2778,119,0
2780,126,0
2781,127,0
2782,127,0
2783,124,0
2784,122,0
2785,120,0
2786,119,0
2787,116,0
2788,116,0
2789,110,0
2790,107,0
2791,104,0
2792,106,0
2793,107,0
2794,111,0
2795,112,0
2796,114,0
2797,115,0
2798,117,0
2799,122,0
2800,126,0
2801,127,0
2802,126,0
2803,123,0
2804,122,0
2805,118,0
2806,118,0
2807,116,0
2808,114,0
2809,108,0
2810,106,0
2811,106,0
2812,107,0
2813,109,0
2814,112,0
2815,114,0
2816,115,0
2817,116,0
2818,120,0
2819,125,0
2820,128,0
2821,126,0
2823,126,0
2824,123,0
2825,121,0
2826,119,0
2827,118,0
2828,116,0
2829,113,0
2830,107,0
2831,106,0
2832,107,0
2833,108,0
2834,110,0
2835,113,0
2836,114,0
2837,116,0
2838,117,0
2839,123,0
2840,126,0
2841,128,0
2842,126,0
2843,125,0
2844,122,0
2845,121,0
2846,118,0
2847,118,0
2848,116,0
2849,111,0
2850,107,0
2851,106,0
2852,108,0
2853,110,0
2854,110,0
2855,114,0
2856,115,0
2857,117,0
2858,119,0
2859,124,0
2860,127,0
2861,129,0
2862,125,0
2863,124,0
2865,123,0
2866,120,0
2867,118,0
2868,118,0
2869,113,0
2870,109,0
2871,105,0
2872,106,0
2873,108,0
2874,110,0
2875,112,0
2876,114,0
2877,112,0
2878,113,0
2879,116,0
2880,117,0
2881,112,0
2882,148,0
2883,197,0
2884,235,0
2885,259,0
2886,280,0
2887,297,0
2888,312,0
2889,319,0
2890,316,0
2891,292,0
2892,251,0
2893,226,0
2894,211,0
2895,198,0
2896,187,0
2897,178,0
2897,171,0
2898,169,0
2899,167,0
2900,163,0
2901,158,0
2902,153,0
2903,148,0
2904,143,0
2905,137,0
2906,128,0
2908,118,0
2909,104,0
2910,96,0
2911,90,0
2912,90,0
2913,92,0
2914,96,0
2915,99,0
2916,103,0
2917,106,0
2918,112,0
2919,120,0
2920,126,0
2921,129,0
2922,129,0
2923,128,0
2924,127,0
2925,125,0
2926,125,0
2927,123,0
2928,123,0
2929,117,0
2930,113,0
2931,111,0
2932,114,0
2933,115,0
2934,118,0
2935,119,0
2936,122,0
2937,121,0
2938,125,0
2939,129,0
2940,133,0
2941,133,0
2942,131,0
2943,128,0
2944,126,0
2945,123,0
2946,122,0
2947,120,0
2948,117,0
2949,113,0
2951,110,0
2952,109,0
2953,112,0
2954,113,0
2955,117,0
2956,117,0
2957,119,0
2958,120,0
2959,125,0
2960,129,0
2961,132,0
2962,130,0
2963,128,0
2964,125,0
2965,124,0
2966,123,0
2967,121,0
2968,120,0
2969,115,0
2970,110,0
2971,109,0
2972,109,0
2973,112,0
2974,113,0
2975,116,0
2976,117,0
2977,120,0
2978,122,0
2979,128,0
2980,130,0
2981,131,0
2982,128,0
2983,128,0
2984,123,0
2985,123,0
2986,121,0
2987,120,0
2988,117,0
2989,112,0
2990,109,0
2991,109,0
2993,109,0
2994,113,0
2995,115,0
2996,116,0
2997,118,0
2998,120,0
2999,123,0
3000,129,0
3001,130,0
3002,130,0
3003,128,0
3004,126,0
3005,123,0
3006,122,0
3007,119,0
3008,119,0
3009,114,0
3010,111,0
3011,108,0
3012,109,0
3013,111,0
3014,113,0
3015,115,0
3016,118,0
3017,118,0
3018,120,0
3019,124,0
3020,129,0
3021,130,0
3022,129,0
3023,127,0
3024,124,0
3025,123,0
3026,121,0
3027,119,0
3028,118,0
3028,113,0
3029,110,0
3030,107,0
3031,110,0
3032,112,0
3033,114,0
3034,115,0
3036,117,0
3037,118,0
3038,122,0
3039,126,0
3040,130,0
3041,129,0
3042,128,0
3043,126,0
3044,124,0
3045,121,0
3046,121,0
3047,119,0
3048,116,0
3049,110,0
3050,108,0
3051,108,0
3052,110,0
3053,112,0
3054,115,0
3055,116,0
3056,119,0
3057,120,0
3058,124,0
3059,129,0
3060,132,0
3061,131,0
3062,130,0
3063,128,0
3064,128,0
3065,126,0
3066,125,0
3067,123,0
3068,118,0
3069,114,0
3070,113,0
3071,112,0
3072,115,0
3073,117,0
3074,121,0
3075,121,0
3076,124,0
3077,125,0
3079,131,0
3080,135,0
3081,138,0
3082,135,0
3083,133,0
3084,130,0
3085,128,0
3086,127,0
3087,126,0
3088,123,0
3089,119,0
3090,114,0
3091,115,0
3092,115,0
3093,119,0
3094,120,0
3095,123,0
3096,124,0
3097,126,0
3098,129,0
3099,135,0
3100,137,0
3101,138,0
3102,135,0
3103,133,0
3104,131,0
3105,129,0
3106,127,0
3107,127,0
3108,122,0
3109,118,0
3110,115,0
3111,116,0
3112,117,0
3113,121,0
3114,122,0
3115,125,0
3116,125,0
3117,128,0
3118,132,0
3119,137,0
3121,138,0
3122,137,0
3123,134,0
3124,133,0
3125,129,0
3126,128,0
3127,127,0
3128,125,0
3129,119,0
3130,116,0
3131,116,0
3132,116,0
3133,117,0
3134,121,0
3135,123,0
3136,125,0
3137,125,0
3138,129,0
3139,134,0
3140,137,0
3141,137,0
3142,135,0
3143,133,0
3144,131,0
3145,129,0
3146,128,0
3147,126,0
3148,124,0
3149,118,0
3150,116,0
3151,116,0
3152,117,0
3153,119,0
3154,123,0
3155,125,0
3156,126,0
3157,126,0
3158,132,0
3159,137,0
3160,138,0
3161,137,0
3162,135,0
3164,132,0
3165,131,0
3166,129,0
3167,128,0
3168,125,0
3169,122,0
3170,117,0
3171,116,0
3172,117,0
3173,119,0
3174,120,0
3175,124,0
3176,125,0
3177,127,0
3178,128,0
3179,134,0
3180,137,0
3181,139,0
3182,136,0
3183,135,0
3184,133,0
3185,130,0
3186,128,0
3187,128,0
3188,125,0
3189,120,0
3190,116,0
3191,116,0
3192,118,0
3193,120,0
3194,121,0
3195,125,0
3196,125,0
3197,128,0
3198,131,0
3199,136,0
3200,138,0
3201,138,0
3202,135,0
3203,134,0
3204,130,0
3205,130,0
3207,129,0
3208,128,0
3209,123,0
3210,120,0
3211,116,0
3212,117,0
3213,119,0
3214,122,0
3215,123,0
3216,125,0
3217,126,0
3218,128,0
3219,133,0
3220,138,0
3221,139,0
3222,138,0
3223,135,0
3224,133,0
3225,130,0
3226,129,0
3227,128,0
3228,127,0
3229,121,0
3230,118,0
3231,115,0
3232,118,0
3233,119,0
3234,123,0
3235,124,0
3236,126,0
3237,126,0
3238,130,0
3239,135,0
3240,139,0
3241,139,0
3242,137,0
3243,134,0
3244,133,0
3245,130,0
3246,129,0
3247,128,0
3249,125,0
3250,119,0
3251,117,0
3252,116,0
3253,118,0
3254,121,0
3255,123,0
3256,125,0
3257,127,0
3258,127,0
3259,132,0
3260,136,0
3261,139,0
3262,138,0
3263,137,0
3264,133,0
3265,132,0
3266,130,0
3267,129,0
3268,128,0
3269,123,0
3270,118,0
3271,117,0
3272,117,0
3273,119,0
3274,122,0
3275,125,0
3276,126,0
3277,127,0
3278,128,0
3279,134,0
3280,137,0
3281,140,0
3282,138,0
3283,136,0
3284,133,0
3285,131,0
3286,130,0
3287,128,0
3288,126,0
3288,120,0
3289,117,0
3290,117,0
3292,118,0
3293,121,0
3294,122,0
3295,125,0
3296,126,0
3297,128,0
3298,131,0
3299,136,0
3300,139,0
3301,139,0
3302,136,0
3303,134,0
3304,131,0
3305,131,0
3306,129,0
3307,128,0
3308,123,0
3309,119,0
3310,116,0
3311,117,0
3312,119,0
3313,121,0
3314,123,0
3315,125,0
3316,127,0
3317,128,0
3318,133,0
3319,138,0
3320,139,0
3321,139,0
3322,135,0
3323,134,0
3324,131,0
3325,130,0
3326,129,0
3327,127,0
3328,121,0
3329,118,0
3330,115,0
3331,118,0
3332,119,0
3333,122,0
3335,124,0
3336,126,0
3337,127,0
3338,130,0
3339,134,0
3340,138,0
3341,138,0
3342,137,0
3343,134,0
3344,132,0
3345,129,0
3346,129,0
3347,127,0
3348,125,0
3349,119,0
3350,117,0
3351,116,0
3352,118,0
3353,119,0
3354,123,0
3355,125,0
3356,126,0
3357,126,0
3358,131,0
3359,136,0
3360,139,0
3361,138,0
3362,136,0
3363,133,0
3364,131,0
3365,129,0
3366,128,0
3367,128,0
3368,123,0
3369,118,0
3370,117,0
3371,117,0
3372,119,0
3373,122,0
3374,124,0
3375,126,0
3377,128,0
3378,128,0
3379,134,0
3380,137,0
3381,139,0
3382,137,0
3383,135,0
3384,133,0
3385,131,0
3386,128,0
3387,128,0
3388,125,0
3389,120,0
3390,117,0
3391,116,0
3392,118,0
3393,119,0
3394,121,0
3395,124,0
3396,125,0
3397,127,0
3398,130,0
3399,135,0
3400,137,0
3401,138,0
3402,135,0
3403,133,0
3404,131,0
3405,130,0
3406,127,0
3407,126,0
3408,123,0
3409,119,0
3410,116,0
3411,117,0
3412,118,0
3413,121,0
3414,123,0
3415,125,0
3416,121,0
3417,115,0
3418,108,0
3420,179,0
3421,227,0
3422,258,0
3423,279,0
3424,298,0
3425,312,0
3426,324,0
3427,332,0
3428,342,0
3429,344,0
3430,339,0
3431,293,0
3432,258,0
3433,234,0
3434,218,0
3435,203,0
3436,192,0
3437,182,0
3438,176,0
3439,173,0
3440,171,0
3441,167,0
3442,162,0
3443,156,0
3444,152,0
3445,147,0
3446,144,0
3447,137,0
3448,126,0
3449,111,0
3450,100,0
3451,92,0
3452,144,0
3453,122,0
3454,125,0
3455,129,0
3456,130,0
3457,132,0
3458,135,0
3459,140,0
3460,142,0
3461,142,0
3463,140,0
3464,137,0
3465,134,0
3466,132,0
3467,126,0
3468,120,0
3469,109,0
3470,99,0
3471,93,0
3472,90,0
3472,91,0
3473,94,0
3474,95,0
3475,99,0
3476,102,0
3477,105,0
3478,110,0
3479,116,0
3480,122,0
3481,125,0
3482,124,0
3483,123,0
3484,122,0
3485,119,0
3486,120,0
3487,119,0
3488,117,0
3489,111,0
3490,110,0
3491,110,0
3492,111,0
3493,113,0
3494,115,0
3495,117,0
3496,119,0
3497,119,0
3498,124,0
3499,128,0
3500,131,0
3501,129,0
3502,128,0
3503,125,0
3505,123,0
3506,121,0
3507,120,0
3508,118,0
3509,114,0
3510,108,0
3511,107,0
3512,107,0
3513,110,0
3514,112,0
3515,114,0
3516,116,0
3517,117,0
3518,118,0
3519,124,0
3520,127,0
3521,129,0
3522,127,0
3523,125,0
3524,123,0
3525,121,0
3526,119,0
3527,119,0
3528,115,0
3529,111,0
3530,107,0
3531,107,0
3532,108,0
3533,110,0
3534,111,0
3535,115,0
3536,116,0
3537,117,0
3538,121,0
3539,126,0
3540,128,0
3541,129,0
3542,126,0
3543,125,0
3544,121,0
3545,121,0
3546,119,0
3548,119,0
3549,114,0
3550,110,0
3551,107,0
3552,107,0
3553,109,0
3554,111,0
3555,113,0
3556,116,0
3557,116,0
3558,118,0
3559,123,0
3560,127,0
3561,129,0
3562,129,0
3563,125,0
3564,124,0
3565,121,0
3566,120,0
3567,119,0
3568,117,0
3569,112,0
3570,109,0
3571,107,0
3572,108,0
3573,111,0
3574,113,0
3575,114,0
3576,116,0
3577,116,0
3578,120,0
3579,124,0
3580,129,0
3581,128,0
3582,128,0
3583,125,0
3584,123,0
3585,120,0
3586,119,0
3587,118,0
3588,116,0
3589,110,0
3591,107,0
3592,106,0
3593,109,0
3594,111,0
3595,113,0
3596,115,0
3597,116,0
3598,117,0
3599,122,0
3600,126,0
3601,129,0
3602,128,0
3603,128,0
3604,124,0
3605,122,0
3606,119,0
3607,119,0
3608,119,0
3609,114,0
3610,109,0
3611,108,0
3612,108,0
3613,110,0
3614,113,0
3615,114,0
3616,116,0
3617,118,0
3618,119,0
3619,124,0
3620,127,0
3621,131,0
3622,129,0
3623,129,0
3624,128,0
3625,127,0
3626,124,0
3627,124,0
3628,122,0
3629,117,0
3630,113,0
3631,112,0
3633,113,0
3634,117,0
3635,119,0
3636,122,0
3637,123,0
3638,125,0
3638,128,0
3639,134,0
3640,137,0
3641,137,0
3642,134,0
3643,133,0
3644,131,0
3645,128,0
3646,127,0
3647,125,0
3648,122,0
3649,118,0
3650,115,0
3651,115,0
3652,116,0
3653,120,0
3654,121,0
3655,124,0
3656,125,0
3657,126,0
3658,131,0
3659,136,0
3660,137,0
3661,137,0
3662,134,0
3663,132,0
3664,130,0
3665,128,0
3666,126,0
3667,126,0
3668,120,0
3669,117,0
3670,115,0
3671,117,0
3672,118,0
3673,121,0
3674,122,0
3676,125,0
3677,125,0
3678,128,0
3679,134,0
3680,138,0
3681,137,0
3682,136,0
3683,133,0
3684,132,0
3685,129,0
3686,128,0
3687,127,0
3688,124,0
3689,119,0
3690,117,0
3691,116,0
3692,118,0
3693,119,0
3694,122,0
3695,124,0
3696,125,0
3697,126,0
3698,131,0
3699,136,0
3700,139,0
3701,137,0
3702,136,0
3703,133,0
3704,131,0
3705,129,0
3706,128,0
3707,127,0
3708,123,0
3709,118,0
3710,117,0
3711,117,0
3712,119,0
3713,121,0
3714,124,0
3715,126,0
3716,127,0
3717,127,0
3719,134,0
3720,137,0
3721,139,0
3722,137,0
3723,136,0
3724,132,0
3725,131,0
3726,128,0
3727,128,0
3728,125,0
3729,121,0
3730,117,0
3731,116,0
3732,118,0
3733,120,0
3734,121,0
3735,125,0
3736,125,0
3737,128,0
3738,130,0
3739,135,0
3740,138,0
3741,139,0
3742,136,0
3743,135,0
3744,132,0
3745,131,0
3746,129,0
3747,128,0
3748,124,0
3749,120,0
3750,116,0
3751,117,0
3752,119,0
3753,121,0
3754,123,0
3755,125,0
3756,126,0
3757,128,0
3758,133,0
3759,137,0
3761,138,0
3762,138,0
3763,135,0
3764,133,0
3765,130,0
3766,130,0
3767,128,0
3768,127,0
3769,122,0
3770,118,0
3771,116,0
3772,117,0
3773,119,0
3774,122,0
3775,123,0
3776,126,0
3777,126,0
3778,129,0
3779,134,0
3780,138,0
3781,138,0
3782,137,0
3783,134,0
3784,133,0
3785,130,0
3786,129,0
3787,128,0
3788,126,0
3789,119,0
3790,117,0
3791,115,0
3792,118,0
3793,120,0
3794,123,0
3795,125,0
3796,127,0
3797,127,0
3798,131,0
3799,135,0
3800,139,0
3801,138,0
3802,136,0
3804,133,0
3805,132,0
3806,129,0
3807,128,0
3808,128,0
3809,124,0
3810,118,0
3811,116,0
3812,116,0
3813,119,0
3814,121,0
3815,123,0
3816,125,0
3817,128,0
3818,127,0
3819,133,0
3820,137,0
3821,139,0
3822,137,0
3823,136,0
3824,132,0
3825,131,0
3826,128,0
3827,128,0
3828,126,0
3829,122,0
3830,117,0
3831,117,0
3832,118,0
3833,120,0
3834,122,0
3835,125,0
3836,126,0
3837,128,0
3838,130,0
3839,135,0
3840,137,0
3841,139,0
3842,136,0
3843,135,0
3844,132,0
3845,130,0
3847,128,0
3848,128,0
3849,124,0
3850,120,0
3851,116,0
3852,117,0
3853,119,0
3854,121,0
3855,123,0
3856,126,0
3857,126,0
3858,128,0
3859,132,0
3860,137,0
3861,138,0
3862,139,0
3863,136,0
3864,135,0
3865,131,0
3866,130,0
3867,129,0
3868,128,0
3869,123,0
3870,119,0
3871,116,0
3872,118,0
3873,120,0
3874,123,0
3875,124,0
3876,126,0
3877,128,0
3878,130,0
3879,134,0
3880,139,0
3881,139,0
3882,138,0
3883,136,0
3884,134,0
3885,131,0
3886,130,0
3887,129,0
3889,127,0
3890,121,0
3891,118,0
3892,116,0
3893,118,0
3894,121,0
3895,123,0
3896,125,0
3897,126,0
3898,128,0
3899,131,0
3899,136,0
3900,139,0
3901,138,0
3902,137,0
3903,134,0
3904,132,0
3905,129,0
3906,128,0
3907,128,0
3908,124,0
3909,118,0
3910,117,0
3911,118,0
3912,119,0
3913,121,0
3914,124,0
3915,126,0
3916,127,0
3917,128,0
3918,133,0
3919,136,0
3920,139,0
3921,138,0
3922,136,0
3923,134,0
3924,131,0
3925,128,0
3926,128,0
3927,126,0
3928,122,0
3929,117,0
3930,117,0
3932,118,0
3933,120,0
3934,122,0
3935,125,0
3936,125,0
3937,128,0
3938,130,0
3939,135,0
3940,138,0
3941,140,0
3942,137,0
3943,135,0
3944,132,0
3945,131,0
3946,129,0
3947,128,0
3948,124,0
3949,121,0
3950,116,0
3951,117,0
3952,119,0
3953,121,0
3954,122,0
3955,126,0
3956,126,0
3957,128,0
3958,132,0
3959,137,0
3960,138,0
3961,138,0
3962,135,0
3963,134,0
3964,131,0
3965,129,0
3966,129,0
3967,128,0
3968,122,0
3969,119,0
3970,115,0
3971,117,0
3972,118,0
3973,121,0
3975,123,0
3976,125,0
3977,125,0
3978,128,0
3979,133,0
3980,137,0
3981,138,0
3982,137,0
3983,135,0
3984,133,0
3985,130,0
3986,129,0
3987,128,0
3988,126,0
3989,121,0
3990,118,0
3991,116,0
3992,118,0
3993,118,0
3994,116,0
3995,109,0
3996,122,0
3997,181,0
3998,170,0
3999,178,0
4000,170,0
4001,165,0
4002,159,0
4003,153,0
4004,148,0
4005,144,0
4006,140,0
4007,137,0
4008,133,0
4009,126,0
4010,124,0
4011,122,0
4012,121,0
4013,115,0
4014,108,0
4015,100,0
4017,140,0
4018,131,0
4019,137,0
4020,140,0
4021,143,0
4022,141,0
4023,139,0
4024,136,0
4025,134,0
4026,132,0
4027,131,0
4028,129,0
4029,123,0
4030,116,0
4031,109,0
4032,101,0
4033,95,0
4034,110,0
4035,125,0
4036,126,0
4037,128,0
4038,131,0
4039,136,0
4040,140,0
4041,140,0
4042,139,0
4043,137,0
4044,134,0
4045,132,0
4046,131,0
4047,128,0
4048,123,0
4049,111,0
4050,100,0
4051,91,0
4052,88,0
4053,87,0
4054,87,0
4054,90,0
4055,92,0
4056,94,0
4057,96,0
4058,102,0
4060,110,0
4061,114,0
4062,115,0
4063,115,0
4064,115,0
4065,114,0
4066,115,0
4067,114,0
4068,115,0
4069,110,0
4070,108,0
4071,106,0
4072,108,0
4073,109,0
4074,113,0
4075,114,0
4076,118,0
4077,118,0
4078,121,0
4079,126,0
4080,129,0
4081,129,0
4082,128,0
4083,126,0
4084,124,0
4085,121,0
4086,120,0
4087,119,0
4088,115,0
4089,110,0
4090,107,0
4091,106,0
4092,108,0
4093,111,0
4094,113,0
4095,114,0
4096,117,0
4097,117,0
4098,121,0
4099,126,0
4100,129,0
4101,128,0
4103,127,0
4104,124,0
4105,122,0
4106,119,0
4107,119,0
4108,118,0
4109,114,0
4110,108,0
4111,107,0
4112,108,0
4113,109,0
4114,111,0
4115,114,0
4116,115,0
4117,117,0
4118,118,0
4119,123,0
4120,126,0
4121,130,0
4122,128,0
4123,126,0
4124,123,0
4125,121,0
4126,118,0
4127,118,0
4128,117,0
4129,111,0
4130,107,0
4131,107,0
4132,108,0
4133,111,0
4134,112,0
4135,115,0
4136,116,0
4137,118,0
4138,121,0
4139,126,0
4140,128,0
4141,129,0
4142,126,0
4143,125,0
4145,122,0
4146,121,0
4147,120,0
4148,118,0
4149,114,0
4150,110,0
4151,106,0
4152,107,0
4153,108,0
4154,111,0
4155,113,0
4156,116,0
4157,116,0
4158,118,0
4159,122,0
4160,127,0
4161,128,0
4162,128,0
4163,125,0
4164,124,0
4165,121,0
4166,120,0
4167,118,0
4168,117,0
4169,111,0
4170,108,0
4171,106,0
4172,108,0
4173,110,0
4174,111,0
4175,113,0
4176,116,0
4177,117,0
4178,119,0
4179,123,0
4180,128,0
4181,129,0
4182,128,0
4183,125,0
4184,123,0
4185,121,0
4186,120,0
4188,118,0
4189,116,0
4190,110,0
4191,108,0
4192,107,0
4193,109,0
4194,111,0
4195,114,0
4196,115,0
4197,117,0
4198,118,0
4199,122,0
4200,127,0
4201,131,0
4202,131,0
4203,131,0
4204,129,0
4205,128,0
4206,125,0
4207,124,0
4208,122,0
4209,119,0
4210,115,0
4211,113,0
4212,113,0
4213,116,0
4214,117,0
4215,121,0
4216,123,0
4217,125,0
4218,125,0
4219,131,0
4220,136,0
4221,138,0
4222,136,0
4223,134,0
4224,131,0
4224,129,0
4225,128,0
4226,127,0
4227,124,0
4228,120,0
4229,115,0
4231,115,0
4232,117,0
4233,119,0
4234,120,0
4235,123,0
4236,124,0
4237,126,0
4238,128,0
4239,134,0
4240,137,0
4241,138,0
4242,135,0
4243,133,0
4244,131,0
4245,129,0
4246,128,0
4247,127,0
4248,123,0
4249,119,0
4250,115,0
4251,117,0
4252,118,0
4253,121,0
4254,123,0
4255,124,0
4256,126,0
4257,126,0
4258,132,0
4259,137,0
4260,138,0
4261,138,0
4262,135,0
4263,133,0
4264,130,0
4265,129,0
4266,128,0
4267,127,0
4268,121,0
4269,118,0
4270,115,0
4271,116,0
4273,118,0
4274,121,0
4275,123,0
4276,125,0
4277,125,0
4278,128,0
4279,133,0
4280,137,0
4281,138,0
4282,136,0
4283,134,0
4284,132,0
4285,130,0
4286,129,0
4287,127,0
4288,125,0
4289,119,0
4290,117,0
4291,115,0
4292,118,0
4293,119,0
4294,122,0
4295,124,0
4296,126,0
4297,126,0
4298,131,0
4299,135,0
4300,139,0
4301,137,0
4302,136,0
4303,133,0
4304,132,0
4305,129,0
4306,128,0
4307,126,0
4308,123,0
4309,118,0
4310,117,0
4311,117,0
4312,119,0
4313,120,0
4314,123,0
4316,125,0
4317,127,0
4318,127,0
4319,132,0
4320,136,0
4321,139,0
4322,138,0
4323,136,0
4324,132,0
4325,131,0
4326,128,0
4327,128,0
4328,127,0
4329,122,0
4330,117,0
4331,116,0
4332,118,0
4333,120,0
4334,121,0
4335,125,0
4336,126,0
4337,128,0
4338,130,0
4339,135,0
4340,138,0
4341,139,0
4342,137,0
4343,136,0
4344,132,0
4345,131,0
4346,129,0
4347,128,0
4348,125,0
4349,120,0
4350,116,0
4351,117,0
4352,119,0
4353,121,0
4354,122,0
4355,125,0
4356,126,0
4357,128,0
4359,131,0
4360,137,0
4361,138,0
4362,138,0
4363,135,0
4364,134,0
4365,131,0
4366,130,0
4367,128,0
4368,128,0
4369,123,0
4370,119,0
4371,116,0
4372,118,0
4373,119,0
4374,122,0
4375,123,0
4376,126,0
4377,127,0
4378,129,0
4379,134,0
4380,138,0
4381,138,0
4382,138,0
4383,135,0
4384,133,0
4385,131,0
4386,129,0
4387,128,0
4388,126,0
4389,121,0
4390,118,0
4391,116,0
4392,119,0
4393,121,0
4394,124,0
4395,125,0
4396,127,0
4397,128,0
4398,130,0
4399,135,0
4401,140,0
4402,139,0
4403,137,0
4404,135,0
4405,133,0
4406,129,0
4407,129,0
4408,128,0
4409,125,0
4410,119,0
4411,118,0
4412,118,0
4413,120,0
4414,122,0
4415,124,0
4416,126,0
4417,128,0
4418,129,0
4419,133,0
4420,137,0
4421,139,0
4422,138,0
4423,137,0
4424,135,0
4425,132,0
4426,129,0
4427,128,0
4428,128,0
4429,122,0
4430,118,0
4431,117,0
4432,119,0
4433,121,0
4434,123,0
4435,125,0
4436,127,0
4437,129,0
4438,130,0
4439,135,0
4440,138,0
4441,139,0
4442,137,0
4444,136,0
4445,133,0
4446,131,0
4447,130,0
4448,129,0
4449,125,0
4450,121,0
4451,117,0
4452,117,0
4453,118,0
4454,121,0
4455,123,0
4456,125,0
4457,126,0
4458,128,0
4459,132,0
4460,137,0
4461,139,0
4462,139,0
4463,136,0
4464,135,0
4465,132,0
4466,131,0
4467,130,0
4468,128,0
4469,123,0
4470,120,0
4471,117,0
4472,118,0
4473,119,0
4474,123,0
4475,123,0
4476,126,0
4477,127,0
4478,129,0
4479,134,0
4480,138,0
4481,140,0
4482,138,0
4483,136,0
4484,134,0
4485,132,0
4485,130,0
4487,129,0
4488,128,0
4489,121,0
4490,119,0
4491,116,0
4492,118,0
4493,121,0
4494,123,0
4495,125,0
4496,127,0
4497,128,0
4498,132,0
4499,136,0
4500,140,0
4501,139,0
4502,138,0
4503,136,0
4504,133,0
4505,130,0
4506,130,0
4507,129,0
4508,125,0
4509,120,0
4510,118,0
4511,117,0
4512,119,0
4513,122,0
4514,125,0
4515,126,0
4516,128,0
4517,128,0
4518,133,0
4519,137,0
4520,140,0
4521,138,0
4522,137,0
4523,135,0
4524,133,0
4525,130,0
4526,129,0
4527,129,0
4529,124,0
4530,118,0
4531,118,0
4532,118,0
4533,120,0
4534,123,0
4535,126,0
4536,127,0
4537,128,0
4538,130,0
4539,135,0
4540,139,0
4541,140,0
4542,138,0
4543,136,0
4544,133,0
4545,132,0
4546,130,0
4547,129,0
4548,127,0
4549,122,0
4550,118,0
4551,118,0
4552,118,0
4553,121,0
4554,122,0
4555,126,0
4556,127,0
4557,128,0
4558,131,0
4559,137,0
4560,138,0
4561,139,0
4562,136,0
4563,135,0
4564,131,0
4565,131,0
4566,128,0
4567,128,0
4568,123,0
4569,119,0
4570,116,0
4572,117,0
4573,120,0
4574,122,0
4575,123,0
4576,127,0
4577,128,0
4578,129,0
4579,132,0
4580,133,0
4581,127,0
4582,116,0
4583,169,0
4584,170,0
4585,156,0
4586,151,0
4587,146,0
4588,143,0
4589,136,0
4590,130,0
4591,126,0
4592,127,0
4593,126,0
4594,128,0
4595,127,0
4596,128,0
4597,124,0
4598,124,0
4599,125,0
4600,126,0
4601,124,0
4602,121,0
4603,117,0
4604,115,0
4605,112,0
4606,111,0
4607,109,0
4608,107,0
4609,103,0
4610,101,0
4611,100,0
4612,103,0
4613,105,0
4615,109,0
4616,110,0
4617,113,0
4618,113,0
4619,118,0
4620,123,0
4621,126,0
4622,125,0
4623,124,0
4624,121,0
4625,119,0
4626,117,0
4627,116,0
4628,116,0
4629,111,0
4630,107,0
4631,105,0
4632,105,0
4633,108,0
4634,109,0
4635,112,0
4636,113,0
4637,116,0
4638,116,0
4639,122,0
4640,126,0
4641,128,0
4642,126,0
4643,124,0
4644,121,0
4645,120,0
4646,117,0
4647,117,0
4648,114,0
4649,110,0
4650,106,0
4651,105,0
4652,106,0
4653,109,0
4654,110,0
4655,113,0
4657,114,0
4658,116,0
4659,118,0
4660,124,0
4661,126,0
4662,128,0
4663,124,0
4664,123,0
4665,121,0
4666,119,0
4667,117,0
4668,116,0
4669,112,0
4670,108,0
4671,105,0
4672,105,0
4673,106,0
4674,110,0
4675,111,0
4676,114,0
4677,114,0
4678,116,0
4679,120,0
4680,126,0
4681,128,0
4682,127,0
4683,124,0
4684,123,0
4685,120,0
4686,120,0
4687,117,0
4688,116,0
4689,111,0
4690,107,0
4691,105,0
4692,107,0
4693,109,0
4694,111,0
4695,113,0
4696,115,0
4697,116,0
4698,119,0
4700,124,0
4701,128,0
4702,128,0
4703,127,0
4704,124,0
4705,123,0
4706,119,0
4707,119,0
4708,118,0
4709,115,0
4710,109,0
4711,107,0
4712,106,0
4713,108,0
4714,110,0
4715,113,0
4716,115,0
4717,116,0
4718,116,0
4719,121,0
4720,125,0
4721,128,0
4722,127,0
4723,126,0
4724,123,0
4725,122,0
4726,119,0
4727,118,0
4728,116,0
4729,113,0
4730,108,0
4731,107,0
4732,107,0
4733,109,0
4734,111,0
4735,114,0
4736,115,0
4737,116,0
4738,117,0
4739,123,0
4740,127,0
4741,129,0
4743,128,0
4744,125,0
4745,123,0
4746,121,0
4747,120,0
4747,118,0
4748,117,0
4749,112,0
4750,108,0
4751,109,0
4752,110,0
4753,113,0
4754,116,0
4755,120,0
4756,122,0
4757,124,0
4758,125,0
4759,132,0
4760,134,0
4761,135,0
4762,132,0
4763,131,0
4764,128,0
4765,127,0
4766,126,0
4767,126,0
4768,122,0
4769,118,0
4770,116,0
4771,115,0
4772,116,0
4773,119,0
4774,121,0
4775,124,0
4776,124,0
4777,126,0
4778,131,0
4779,136,0
4780,137,0
4781,137,0
4782,134,0
4783,132,0
4785,129,0
4786,129,0
4787,126,0
4788,126,0
4789,121,0
4790,118,0
4791,115,0
4792,116,0
4793,117,0
4794,121,0
4795,123,0
4796,125,0
4797,126,0
4798,128,0
4799,133,0
4800,137,0
4801,138,0
4802,137,0
4803,134,0
4804,132,0
4805,129,0
4806,129,0
4807,128,0
4808,125,0
4809,119,0
4810,117,0
4811,116,0
4812,117,0
4813,120,0
4814,123,0
4815,125,0
4816,126,0
4817,127,0
4818,131,0
4819,135,0
4820,139,0
4821,138,0
4822,136,0
4823,133,0
4824,132,0
4825,129,0
4826,129,0
4828,128,0
4829,124,0
4830,118,0
4831,117,0
4832,117,0
4833,119,0
4834,121,0
4835,124,0
4836,125,0
4837,127,0
4838,128,0
4839,133,0
4840,136,0
4841,140,0
4842,137,0
4843,136,0
4844,134,0
4845,131,0
4846,129,0
4847,129,0
4848,126,0
4849,122,0
4850,117,0
4851,117,0
4852,118,0
4853,120,0
4854,122,0
4855,124,0
4856,125,0
4857,128,0
4858,130,0
4859,134,0
4860,138,0
4861,139,0
4862,137,0
4863,135,0
4864,132,0
4865,130,0
4866,128,0
4867,128,0
4868,124,0
4869,120,0
4871,117,0
4872,117,0
4873,119,0
4874,121,0
4875,122,0
4876,125,0
4877,126,0
4878,128,0
4879,132,0
4880,138,0
4881,139,0
4882,140,0
4883,136,0
4884,134,0
4885,132,0
4886,130,0
4887,129,0
4888,128,0
4889,122,0
4890,119,0
4891,116,0
4892,118,0
4893,119,0
4894,122,0
4895,124,0
4896,126,0
4897,126,0
4898,129,0
4899,134,0
4900,138,0
4901,139,0
4902,138,0
4903,135,0
4904,133,0
4905,130,0
4906,129,0
4907,128,0
4908,127,0
4909,120,0
4910,117,0
4911,116,0
4913,118,0
4914,120,0
4915,123,0
4916,123,0
4917,126,0
4918,127,0
4919,131,0
4920,135,0
4921,139,0
4922,139,0
4923,137,0
4924,133,0
4925,132,0
4926,129,0
4927,129,0
4928,128,0
4929,125,0
4930,119,0
4931,117,0
4932,117,0
4933,119,0
4934,122,0
4935,124,0
4936,125,0
4937,127,0
4938,127,0
4939,133,0
4940,137,0
4941,140,0
4942,138,0
4943,137,0
4944,133,0
4945,132,0
4946,129,0
4947,128,0
4948,127,0
4949,122,0
4950,118,0
4951,117,0
4952,118,0
4953,120,0
4954,121,0
4956,124,0
4957,126,0
4958,128,0
4959,130,0
4960,135,0
4961,138,0
4962,140,0
4963,137,0
4964,136,0
4965,132,0
4966,131,0
4967,130,0
4968,128,0
4969,125,0
4970,121,0
4971,117,0
4972,117,0
4973,118,0
4974,121,0
4975,123,0
4976,125,0
4977,126,0
4978,129,0
4979,132,0
4980,137,0
4981,139,0
4982,140,0
4983,137,0
4984,135,0
4985,132,0
4986,131,0
4987,130,0
4988,128,0
4989,123,0
4990,120,0
4991,116,0
4992,118,0
4993,119,0
4994,122,0
4995,124,0
4996,127,0
4997,127,0
4999,130,0
