timestamp_ms,emg_raw,lead_off
0,288,0
0,266,0
1,247,0
1,234,0
2,223,0
2,213,0
2,205,0
3,199,0
3,193,0
4,186,0
4,178,0
5,172,0
7,165,0
8,161,0
8,157,0
9,157,0
10,158,0
11,156,0
11,155,0
12,152,0
13,147,0
14,144,0
15,141,0
16,138,0
16,135,0
17,134,0
18,131,0
19,125,0
20,121,0
21,118,0
21,116,0
22,116,0
23,118,0
24,119,0
25,121,0
26,121,0
26,123,0
27,124,0
28,126,0
29,131,0
30,134,0
31,136,0
31,136,0
32,133,0
33,132,0
34,130,0
35,128,0
36,126,0
36,125,0
37,123,0
38,121,0
39,115,0
40,111,0
41,110,0
41,110,0
42,111,0
43,113,0
44,116,0
45,117,0
46,119,0
46,119,0
47,121,0
49,125,0
50,129,0
51,133,0
51,134,0
52,133,0
53,131,0
54,129,0
55,127,0
56,126,0
56,123,0
57,122,0
58,122,0
59,117,0
60,112,0
61,110,0
61,107,0
62,105,0
63,101,0
64,96,0
65,119,0
66,165,0
66,137,0
67,135,0
68,134,0
69,139,0
70,143,0
70,144,0
71,144,0
72,142,0
73,139,0
74,138,0
75,134,0
75,132,0
76,131,0
77,130,0
78,127,0
79,124,0
80,119,0
80,114,0
81,108,0
82,102,0
83,98,0
84,94,0
84,92,0
85,90,0
86,90,0
87,91,0
87,92,0
88,96,0
89,102,0
90,108,0
92,113,0
92,114,0
93,115,0
94,116,0
95,117,0
96,118,0
97,119,0
97,119,0
98,119,0
99,116,0
100,113,0
101,110,0
102,110,0
103,112,0
104,114,0
104,117,0
105,118,0
106,120,0
107,121,0
108,122,0
109,126,0
110,131,0
111,132,0
112,133,0
113,132,0
114,129,0
114,127,0
115,124,0
116,123,0
117,121,0
118,119,0
119,115,0
120,111,0
121,110,0
122,110,0
123,111,0
124,112,0
125,115,0
125,117,0
126,119,0
127,120,0
128,123,0
129,128,0
130,132,0
131,132,0
132,130,0
133,128,0
135,127,0
136,125,0
136,123,0
137,121,0
138,121,0
139,116,0
140,112,0
141,108,0
142,109,0
143,111,0
144,112,0
145,115,0
146,117,0
147,117,0
147,118,0
148,120,0
149,126,0
150,130,0
151,132,0
152,132,0
153,130,0
154,127,0
155,124,0
156,124,0
157,122,0
157,121,0
158,118,0
159,114,0
160,110,0
161,108,0
162,109,0
163,110,0
164,113,0
165,116,0
166,117,0
167,118,0
168,119,0
168,123,0
169,128,0
170,131,0
171,131,0
172,130,0
173,128,0
174,126,0
175,124,0
177,122,0
178,121,0
179,120,0
179,115,0
180,111,0
181,109,0
182,109,0
183,110,0
184,112,0
185,113,0
186,117,0
187,118,0
188,119,0
189,121,0
190,126,0
190,130,0
191,133,0
192,131,0
193,130,0
194,128,0
195,124,0
196,124,0
197,122,0
198,121,0
199,118,0
200,113,0
200,110,0
201,109,0
202,110,0
203,111,0
204,113,0
205,116,0
206,116,0
207,117,0
208,118,0
209,124,0
210,130,0
211,132,0
211,132,0
212,129,0
213,127,0
214,125,0
215,124,0
216,123,0
217,121,0
218,120,0
220,115,0
221,111,0
222,108,0
222,109,0
223,110,0
224,112,0
225,114,0
226,117,0
227,119,0
228,119,0
229,122,0
230,127,0
231,130,0
232,132,0
233,131,0
233,130,0
234,128,0
235,125,0
236,123,0
237,122,0
238,121,0
239,117,0
240,111,0
241,107,0
242,105,0
243,101,0
243,96,0
244,109,0
245,158,0
246,135,0
247,132,0
248,134,0
249,139,0
250,143,0
251,144,0
252,143,0
253,140,0
253,136,0
254,134,0
255,132,0
256,130,0
257,129,0
258,126,0
259,121,0
260,115,0
261,109,0
263,101,0
264,96,0
264,93,0
265,90,0
266,88,0
267,89,0
268,91,0
269,93,0
269,99,0
270,105,0
271,111,0
272,115,0
273,116,0
274,117,0
275,118,0
276,118,0
277,118,0
278,118,0
278,119,0
279,116,0
280,112,0
281,111,0
282,110,0
283,111,0
284,113,0
285,116,0
286,118,0
287,120,0
288,121,0
288,124,0
289,130,0
290,133,0
291,134,0
292,133,0
293,131,0
294,128,0
295,126,0
296,125,0
297,124,0
298,122,0
299,118,0
299,113,0
300,110,0
301,110,0
302,111,0
303,112,0
305,114,0
306,117,0
307,117,0
308,118,0
309,121,0
310,125,0
310,130,0
311,132,0
312,132,0
313,130,0
314,128,0
315,125,0
316,123,0
317,123,0
318,122,0
319,120,0
320,115,0
321,110,0
321,108,0
322,109,0
323,111,0
324,114,0
325,115,0
326,118,0
327,119,0
328,119,0
329,122,0
330,127,0
331,131,0
331,132,0
332,131,0
333,129,0
334,128,0
335,124,0
336,122,0
337,121,0
338,121,0
339,117,0
340,112,0
341,110,0
342,108,0
342,110,0
343,111,0
344,113,0
345,116,0
346,117,0
348,119,0
349,121,0
350,126,0
351,130,0
352,131,0
353,131,0
353,130,0
354,128,0
355,126,0
356,124,0
357,123,0
358,120,0
359,118,0
360,113,0
361,110,0
362,109,0
363,110,0
364,111,0
364,113,0
365,115,0
366,116,0
367,117,0
368,119,0
369,124,0
370,128,0
371,131,0
372,131,0
373,130,0
374,128,0
374,126,0
375,124,0
376,123,0
377,122,0
378,121,0
379,115,0
380,110,0
381,109,0
382,108,0
383,110,0
384,112,0
385,114,0
385,115,0
386,118,0
387,119,0
388,122,0
389,126,0
391,131,0
392,133,0
393,131,0
394,130,0
395,128,0
396,126,0
396,124,0
397,122,0
398,121,0
399,118,0
400,113,0
401,110,0
402,109,0
403,110,0
404,112,0
405,113,0
406,115,0
407,117,0
407,118,0
408,120,0
409,123,0
410,128,0
411,131,0
412,130,0
413,130,0
414,128,0
415,126,0
416,124,0
417,122,0
417,121,0
418,119,0
419,114,0
420,110,0
421,107,0
422,105,0
423,102,0
424,97,0
425,112,0
426,168,0
427,147,0
427,142,0
428,142,0
429,145,0
430,148,0
431,148,0
433,145,0
434,142,0
435,139,0
436,135,0
437,132,0
438,131,0
439,129,0
439,126,0
440,120,0
441,114,0
442,108,0
443,102,0
444,96,0
445,92,0
446,91,0
446,89,0
447,90,0
448,91,0
449,95,0
450,102,0
451,108,0
452,114,0
453,115,0
453,116,0
454,117,0
455,117,0
456,117,0
457,119,0
458,119,0
459,117,0
460,114,0
461,110,0
462,110,0
463,111,0
463,113,0
464,116,0
465,118,0
466,120,0
467,121,0
468,122,0
469,126,0
470,131,0
471,133,0
472,133,0
473,132,0
474,129,0
474,126,0
476,125,0
477,123,0
478,122,0
479,120,0
480,116,0
481,112,0
482,110,0
483,109,0
484,110,0
485,112,0
485,115,0
486,117,0
487,119,0
488,120,0
489,123,0
490,128,0
491,131,0
492,133,0
493,131,0
494,130,0
495,128,0
496,125,0
496,123,0
497,122,0
498,121,0
499,118,0
500,112,0
501,110,0
502,109,0
503,110,0
504,111,0
505,113,0
506,116,0
506,117,0
507,117,0
508,119,0
509,125,0
510,130,0
511,132,0
512,132,0
513,130,0
514,127,0
515,125,0
516,124,0
517,123,0
517,121,0
519,120,0
520,114,0
521,110,0
522,108,0
523,108,0
524,111,0
525,112,0
526,115,0
527,117,0
528,118,0
528,118,0
529,122,0
530,127,0
531,130,0
532,132,0
533,131,0
534,129,0
535,127,0
536,124,0
537,122,0
538,121,0
539,121,0
539,116,0
540,111,0
541,110,0
542,108,0
543,110,0
544,111,0
545,114,0
546,116,0
547,118,0
548,119,0
549,121,0
549,126,0
550,130,0
551,131,0
552,130,0
553,128,0
554,127,0
555,125,0
556,123,0
557,122,0
558,120,0
559,117,0
561,112,0
561,109,0
562,108,0
563,110,0
564,111,0
565,113,0
566,114,0
567,116,0
568,118,0
569,118,0
570,123,0
571,128,0
571,132,0
572,131,0
573,130,0
574,127,0
575,125,0
576,122,0
577,121,0
578,121,0
579,119,0
580,114,0
581,111,0
582,108,0
582,108,0
583,109,0
584,112,0
585,114,0
586,116,0
587,117,0
588,118,0
589,121,0
590,127,0
591,130,0
592,132,0
592,130,0
593,129,0
594,126,0
595,125,0
596,123,0
597,122,0
598,121,0
599,117,0
600,112,0
601,109,0
602,106,0
604,104,0
604,101,0
605,96,0
606,123,0
607,154,0
608,139,0
609,136,0
610,141,0
611,145,0
612,146,0
613,145,0
613,141,0
614,138,0
615,135,0
616,132,0
617,131,0
618,129,0
619,127,0
620,122,0
621,118,0
622,111,0
623,105,0
624,100,0
624,96,0
625,92,0
626,90,0
627,90,0
628,90,0
629,93,0
629,97,0
630,105,0
631,109,0
632,113,0
633,115,0
634,116,0
635,117,0
636,117,0
637,119,0
638,119,0
638,119,0
639,115,0
640,110,0
641,109,0
642,109,0
643,112,0
644,114,0
645,116,0
647,118,0
648,120,0
649,120,0
650,122,0
650,128,0
651,131,0
652,133,0
653,131,0
654,129,0
655,128,0
656,125,0
657,123,0
658,121,0
659,121,0
660,117,0
660,112,0
661,109,0
662,108,0
663,108,0
664,110,0
665,112,0
666,114,0
667,116,0
668,118,0
669,119,0
670,124,0
671,127,0
671,130,0
672,130,0
673,129,0
674,127,0
675,125,0
676,124,0
677,121,0
678,120,0
679,118,0
680,113,0
681,110,0
681,108,0
682,108,0
683,110,0
684,112,0
685,114,0
686,116,0
687,117,0
689,119,0
690,122,0
691,126,0
692,130,0
693,131,0
693,130,0
694,128,0
695,126,0
696,123,0
697,122,0
698,120,0
699,120,0
700,115,0
701,111,0
702,108,0
703,107,0
703,109,0
704,111,0
705,113,0
706,115,0
707,117,0
708,117,0
709,118,0
710,124,0
711,129,0
712,132,0
713,131,0
714,129,0
714,127,0
715,123,0
716,122,0
717,121,0
718,120,0
719,118,0
720,113,0
721,110,0
722,108,0
723,108,0
724,111,0
724,112,0
725,115,0
726,116,0
727,118,0
728,119,0
729,123,0
730,127,0
732,130,0
733,131,0
734,130,0
735,128,0
736,127,0
736,124,0
737,122,0
738,121,0
739,119,0
740,114,0
741,111,0
742,109,0
743,109,0
744,111,0
745,112,0
746,114,0
746,115,0
747,117,0
748,119,0
749,121,0
750,126,0
751,130,0
752,132,0
753,130,0
754,128,0
755,127,0
756,125,0
757,123,0
757,121,0
758,120,0
759,118,0
760,112,0
761,109,0
762,108,0
763,110,0
764,111,0
765,114,0
766,115,0
767,117,0
767,117,0
768,118,0
769,123,0
770,129,0
771,132,0
772,132,0
773,130,0
775,128,0
776,125,0
777,123,0
778,121,0
779,121,0
779,120,0
780,114,0
781,110,0
782,107,0
783,105,0
784,103,0
785,99,0
786,92,0
787,138,0
787,139,0
788,135,0
789,135,0
790,140,0
791,143,0
792,144,0
793,142,0
794,140,0
795,137,0
796,133,0
797,131,0
798,130,0
798,128,0
799,124,0
800,119,0
801,116,0
802,111,0
803,106,0
804,101,0
805,96,0
806,93,0
807,89,0
807,90,0
808,90,0
809,94,0
810,100,0
811,108,0
812,111,0
813,114,0
813,115,0
814,116,0
815,117,0
817,117,0
818,118,0
819,118,0
820,116,0
821,113,0
822,110,0
823,110,0
824,112,0
825,114,0
825,116,0
826,118,0
827,119,0
828,120,0
829,122,0
830,127,0
831,132,0
832,134,0
833,134,0
834,131,0
835,129,0
835,126,0
836,124,0
837,124,0
838,123,0
839,121,0
840,116,0
841,111,0
842,109,0
843,109,0
844,111,0
845,113,0
846,116,0
846,117,0
847,119,0
848,120,0
849,122,0
850,127,0
851,131,0
852,132,0
853,132,0
854,129,0
855,128,0
856,125,0
856,122,0
857,122,0
858,121,0
860,118,0
861,112,0
862,110,0
863,109,0
864,110,0
865,111,0
866,114,0
867,115,0
868,118,0
868,118,0
869,121,0
870,126,0
871,130,0
872,132,0
873,131,0
874,130,0
875,128,0
876,126,0
877,124,0
878,122,0
878,121,0
879,119,0
880,113,0
881,109,0
882,109,0
883,109,0
884,111,0
885,113,0
886,115,0
887,117,0
888,119,0
889,120,0
889,124,0
890,129,0
891,132,0
892,133,0
893,132,0
894,129,0
895,128,0
896,125,0
897,123,0
898,122,0
899,121,0
899,116,0
900,112,0
901,110,0
903,110,0
904,111,0
905,113,0
906,115,0
907,116,0
908,118,0
909,120,0
910,121,0
911,125,0
911,130,0
912,133,0
913,132,0
914,130,0
915,128,0
916,126,0
917,123,0
918,122,0
919,121,0
920,118,0
921,113,0
921,110,0
922,108,0
923,109,0
924,110,0
925,112,0
926,114,0
927,117,0
928,119,0
929,120,0
930,124,0
931,129,0
932,131,0
932,132,0
933,130,0
934,129,0
935,127,0
936,125,0
937,123,0
938,122,0
939,120,0
940,115,0
941,110,0
942,110,0
942,109,0
943,111,0
945,112,0
946,114,0
947,116,0
948,117,0
949,118,0
950,122,0
951,128,0
952,132,0
953,133,0
954,131,0
954,129,0
955,126,0
956,124,0
957,124,0
958,122,0
959,121,0
960,118,0
961,113,0
962,109,0
963,107,0
964,106,0
964,106,0
965,101,0
966,95,0
967,141,0
968,140,0
969,135,0
970,138,0
971,142,0
972,144,0
973,143,0
974,139,0
974,138,0
975,135,0
976,133,0
977,131,0
978,128,0
979,126,0
980,122,0
981,118,0
982,115,0
983,112,0
984,107,0
984,101,0
985,97,0
986,94,0
988,91,0
989,91,0
990,92,0
991,97,0
991,103,0
992,107,0
993,111,0
994,111,0
995,113,0
996,115,0
997,116,0
998,116,0
999,118,0
1000,118,0
1001,112,0
1002,110,0
1003,108,0
1004,111,0
1005,113,0
1006,116,0
1007,117,0
1008,120,0
1009,122,0
1010,125,0
1011,129,0
1012,133,0
1013,133,0
1014,133,0
1015,129,0
1016,128,0
1017,125,0
1018,123,0
1019,122,0
1020,119,0
1021,113,0
1022,110,0
1023,110,0
1024,111,0
1025,113,0
1025,115,0
1026,117,0
1027,119,0
1028,119,0
1029,124,0
1031,129,0
1032,132,0
1033,131,0
1034,130,0
1035,128,0
1036,126,0
1037,123,0
1038,122,0
1039,120,0
1040,116,0
1041,111,0
1042,109,0
1043,108,0
1044,111,0
1045,112,0
1046,116,0
1047,117,0
1048,118,0
1049,121,0
1050,127,0
1051,130,0
1052,133,0
1053,131,0
1054,130,0
1055,127,0
1056,125,0
1057,122,0
1058,122,0
1059,119,0
1060,115,0
1061,109,0
1062,109,0
1063,109,0
1064,112,0
1065,114,0
1066,117,0
1067,118,0
1068,120,0
1069,122,0
1070,128,0
1071,131,0
1073,133,0
1074,131,0
1075,128,0
1076,126,0
1077,124,0
1078,121,0
1079,121,0
1080,117,0
1081,112,0
1082,108,0
1083,109,0
1084,110,0
1085,112,0
1086,114,0
1087,116,0
1088,118,0
1089,119,0
1090,123,0
1091,129,0
1092,131,0
1093,131,0
1094,129,0
1095,128,0
1096,125,0
1097,123,0
1098,121,0
1099,121,0
1100,116,0
1101,111,0
1102,108,0
1103,110,0
1104,111,0
1105,114,0
1106,115,0
1107,117,0
1108,119,0
1109,121,0
1110,126,0
1111,131,0
1112,131,0
1113,130,0
1114,129,0
1116,126,0
1117,123,0
1118,122,0
1119,120,0
1120,118,0
1121,113,0
1122,109,0
1123,107,0
1124,110,0
1125,111,0
1126,114,0
1127,115,0
1128,117,0
1129,117,0
1130,122,0
1131,127,0
1132,131,0
1133,131,0
1134,130,0
1135,126,0
1136,125,0
1137,122,0
1138,121,0
1139,119,0
1140,115,0
1141,110,0
1142,107,0
1143,104,0
1144,103,0
1145,99,0
1146,110,0
1147,167,0
1148,137,0
1149,135,0
1150,139,0
1151,143,0
1152,144,0
1153,143,0
1154,139,0
1155,137,0
1156,133,0
1157,132,0
1159,129,0
1160,128,0
1161,123,0
1162,117,0
1163,109,0
1164,103,0
1165,97,0
1166,92,0
1167,91,0
1168,89,0
1169,90,0
1169,92,0
1170,98,0
1171,104,0
1172,112,0
1173,115,0
1174,115,0
1175,117,0
1176,118,0
1177,118,0
1178,119,0
1179,118,0
1180,117,0
1181,111,0
1182,110,0
1183,111,0
1184,113,0
1185,115,0
1186,117,0
1187,118,0
1188,121,0
1189,121,0
1190,128,0
1191,131,0
1192,134,0
1193,132,0
1194,131,0
1195,127,0
1196,126,0
1197,122,0
1198,122,0
1199,120,0
1201,114,0
1202,110,0
1203,110,0
1204,109,0
1205,111,0
1206,113,0
1207,116,0
1208,117,0
1209,119,0
1210,122,0
1211,128,0
1212,131,0
1213,132,0
1214,130,0
1215,129,0
1216,125,0
1217,125,0
1218,122,0
1219,122,0
1220,118,0
1221,112,0
1222,109,0
1223,109,0
1224,110,0
1225,112,0
1226,115,0
1227,117,0
1228,118,0
1229,120,0
1230,123,0
1231,130,0
1232,131,0
1233,132,0
1234,130,0
1235,129,0
1236,125,0
1237,124,0
1238,121,0
1239,122,0
1240,116,0
1241,111,0
1242,109,0
1244,110,0
1245,110,0
1246,113,0
1247,115,0
1248,117,0
1249,119,0
1250,121,0
1251,126,0
1252,130,0
1253,132,0
1254,131,0
1255,129,0
1256,128,0
1257,124,0
1258,123,0
1259,121,0
1260,119,0
1261,114,0
1262,110,0
1263,107,0
1264,110,0
1265,110,0
1266,114,0
1267,116,0
1268,118,0
1269,118,0
1270,122,0
1271,127,0
1272,131,0
1273,131,0
1274,131,0
1275,129,0
1276,126,0
1277,123,0
1278,122,0
1279,120,0
1280,118,0
1281,113,0
1282,109,0
1283,108,0
1284,111,0
1285,112,0
1287,115,0
1288,116,0
1289,118,0
1290,119,0
1291,124,0
1292,128,0
1293,131,0
1294,131,0
1295,130,0
1296,128,0
1297,126,0
1298,122,0
1299,122,0
1300,119,0
1301,115,0
1302,111,0
1303,109,0
1304,108,0
1305,111,0
1306,113,0
1307,116,0
1308,117,0
1309,119,0
1310,121,0
1311,126,0
1312,130,0
1313,132,0
1314,129,0
1315,128,0
1316,125,0
1317,124,0
1318,122,0
1319,121,0
1320,119,0
1321,113,0
1322,108,0
1323,106,0
1324,103,0
1325,100,0
1326,91,0
1327,152,0
1329,144,0
1330,139,0
1331,140,0
1332,143,0
1333,146,0
1334,145,0
1335,143,0
1336,139,0
1337,136,0
1338,132,0
1339,131,0
1340,129,0
1341,126,0
1342,119,0
1343,112,0
1344,104,0
1345,98,0
1345,94,0
1346,90,0
1347,89,0
1348,90,0
1349,92,0
1350,96,0
1351,102,0
1352,109,0
1353,115,0
1354,117,0
1355,118,0
1356,118,0
1357,120,0
1358,119,0
1359,120,0
1360,117,0
1361,114,0
1362,111,0
1363,111,0
1364,112,0
1365,114,0
1366,115,0
1367,118,0
1368,119,0
1369,121,0
1370,125,0
1372,130,0
1373,132,0
1374,133,0
1375,131,0
1376,129,0
1377,126,0
1378,124,0
1379,122,0
1380,122,0
1381,116,0
1382,111,0
1383,109,0
1384,110,0
1385,110,0
1386,113,0
1387,115,0
1388,117,0
1389,119,0
1390,120,0
1391,124,0
1392,130,0
1393,131,0
1394,132,0
1395,130,0
1396,128,0
1397,124,0
1398,123,0
1399,121,0
1400,120,0
1401,114,0
1402,110,0
1403,108,0
1404,111,0
1405,111,0
1406,115,0
1407,116,0
1408,118,0
1409,120,0
1410,122,0
1411,127,0
1412,131,0
1413,131,0
1415,131,0
1416,128,0
1417,127,0
1418,124,0
1419,123,0
1420,121,0
1421,119,0
1422,113,0
1423,111,0
1424,108,0
1425,110,0
1426,112,0
1427,116,0
1428,116,0
1429,119,0
1430,119,0
1431,125,0
1432,129,0
1433,133,0
1434,131,0
1435,130,0
1436,129,0
1437,126,0
1438,124,0
1439,123,0
1440,120,0
1441,116,0
1442,111,0
1443,109,0
1444,108,0
1445,111,0
1446,113,0
1447,116,0
1448,116,0
1449,119,0
1450,120,0
1451,125,0
1452,130,0
1453,132,0
1454,130,0
1455,129,0
1457,127,0
1458,124,0
1459,123,0
1460,121,0
1461,119,0
1461,114,0
1462,110,0
1463,108,0
1464,109,0
1465,111,0
1466,113,0
1467,116,0
1468,117,0
1469,119,0
1470,122,0
1471,127,0
1472,130,0
1473,132,0
1474,129,0
1475,129,0
1476,125,0
1477,124,0
1478,121,0
1479,121,0
1480,118,0
1481,112,0
1482,108,0
1483,108,0
1484,109,0
1485,112,0
1486,115,0
1487,117,0
1488,119,0
1489,119,0
1490,124,0
1491,130,0
1492,131,0
1493,130,0
1494,129,0
1495,127,0
1496,124,0
1497,123,0
1498,122,0
1500,120,0
1501,114,0
1502,110,0
1503,105,0
1504,104,0
1505,100,0
1506,94,0
1507,144,0
1508,146,0
1509,140,0
1510,138,0
1511,143,0
1512,145,0
1513,146,0
1514,142,0
1515,140,0
1516,137,0
1517,134,0
1518,131,0
1519,130,0
1520,127,0
1521,122,0
1522,115,0
1523,108,0
1524,101,0
1525,96,0
1526,93,0
1527,90,0
1528,90,0
1529,90,0
1530,92,0
1531,100,0
1532,107,0
1533,113,0
1534,114,0
1535,116,0
1536,118,0
1537,118,0
1538,119,0
1539,119,0
1540,118,0
1541,114,0
1543,111,0
1544,109,0
1545,111,0
1546,112,0
1547,115,0
1548,118,0
1549,118,0
1550,120,0
1551,124,0
1552,128,0
1553,131,0
1554,133,0
1555,131,0
1556,129,0
1557,127,0
1558,124,0
1559,123,0
1560,121,0
1561,117,0
1562,113,0
1563,108,0
1564,108,0
1565,109,0
1566,112,0
1567,114,0
1568,116,0
1569,118,0
1570,118,0
1570,123,0
1571,129,0
1572,131,0
1573,132,0
1574,130,0
1575,128,0
1576,126,0
1577,123,0
1578,122,0
1579,121,0
1580,116,0
1581,111,0
1582,108,0
1583,108,0
1585,110,0
1586,112,0
1587,113,0
1588,116,0
1589,117,0
1590,120,0
1591,125,0
1592,129,0
1593,131,0
1594,130,0
1595,128,0
1596,126,0
1597,123,0
1598,122,0
1599,119,0
1600,119,0
1601,114,0
1602,109,0
1603,108,0
1604,109,0
1605,111,0
1606,114,0
1607,116,0
1608,117,0
1609,119,0
1610,122,0
1611,128,0
1612,131,0
1613,131,0
1614,130,0
1615,128,0
1616,125,0
1617,124,0
1618,122,0
1619,120,0
1620,117,0
1621,112,0
1622,108,0
1623,107,0
1624,109,0
1625,111,0
1626,113,0
1628,116,0
1629,117,0
1630,118,0
1631,124,0
1632,128,0
1633,130,0
1634,131,0
1635,129,0
1636,126,0
1637,124,0
1638,123,0
1639,121,0
1640,120,0
1641,115,0
1642,109,0
1643,107,0
1644,108,0
1645,110,0
1646,112,0
1647,114,0
1648,117,0
1649,118,0
1650,119,0
1651,125,0
1652,129,0
1653,131,0
1654,129,0
1655,128,0
1656,125,0
1657,123,0
1658,122,0
1659,120,0
1660,118,0
1661,113,0
1662,108,0
1663,108,0
1664,109,0
1665,110,0
1666,113,0
1667,115,0
1668,117,0
1669,118,0
1671,121,0
1672,128,0
1673,130,0
1674,131,0
1675,128,0
1676,127,0
1677,125,0
1678,123,0
1679,121,0
1680,120,0
1681,115,0
1682,109,0
1683,106,0
1684,103,0
1685,98,0
1686,90,0
1687,145,0
1688,139,0
1689,134,0
1690,133,0
1691,137,0
1692,142,0
1693,142,0
1694,142,0
1695,138,0
1696,136,0
1697,132,0
1698,131,0
1699,128,0
1700,128,0
1701,122,0
1702,114,0
1703,103,0
1704,97,0
1705,92,0
1706,89,0
1707,88,0
1707,87,0
1708,89,0
1709,92,0
1710,98,0
1711,106,0
1713,111,0
1714,117,0
1715,119,0
1716,119,0
1717,120,0
1718,120,0
1719,119,0
1720,120,0
1721,118,0
1722,113,0
1723,110,0
1724,110,0
1725,112,0
1726,114,0
1727,116,0
1728,118,0
1729,119,0
1730,121,0
1731,125,0
1732,131,0
1733,131,0
1734,132,0
1735,129,0
1736,128,0
1737,124,0
1738,123,0
1739,120,0
1740,120,0
1741,115,0
1742,111,0
1743,107,0
1744,108,0
1745,110,0
1746,113,0
1747,114,0
1748,117,0
1749,117,0
1750,120,0
1751,125,0
1752,130,0
1753,131,0
1754,131,0
1756,128,0
1757,126,0
1758,123,0
1759,123,0
1760,120,0
1761,119,0
1762,113,0
1763,109,0
1764,107,0
1765,109,0
1766,110,0
1767,114,0
1768,115,0
1769,116,0
1770,118,0
1771,123,0
1772,127,0
1773,131,0
1774,130,0
1775,130,0
1776,127,0
1777,125,0
1778,122,0
1779,121,0
1780,119,0
1781,116,0
1782,110,0
1783,108,0
1784,107,0
1785,109,0
1786,111,0
1787,115,0
1788,115,0
1789,117,0
1790,118,0
1791,124,0
1792,128,0
1793,131,0
1794,129,0
1795,129,0
1796,126,0
1797,123,0
1799,122,0
1800,120,0
1801,120,0
1802,114,0
1803,109,0
1804,107,0
1805,107,0
1806,110,0
1807,111,0
1808,114,0
1809,116,0
1810,118,0
1811,119,0
1812,126,0
1813,129,0
1814,131,0
1815,129,0
1816,128,0
1817,126,0
1818,123,0
1819,121,0
1820,120,0
1821,118,0
1822,113,0
1823,108,0
1824,107,0
1825,108,0
1826,111,0
1827,113,0
1828,115,0
1829,117,0
1830,119,0
1831,122,0
1832,127,0
1833,129,0
1834,130,0
1835,128,0
1836,126,0
1837,123,0
1838,123,0
1839,120,0
1841,120,0
1842,115,0
1843,111,0
1844,107,0
1845,108,0
1846,109,0
1847,112,0
1848,113,0
1849,116,0
1850,117,0
1851,120,0
1852,125,0
1853,129,0
1854,131,0
1855,131,0
1856,128,0
1857,126,0
1858,122,0
1859,122,0
1860,119,0
1861,118,0
1862,114,0
1863,108,0
1864,103,0
1865,100,0
1866,94,0
1866,118,0
1867,146,0
1868,135,0
1869,134,0
1870,135,0
1871,140,0
1872,143,0
1873,143,0
1874,140,0
1875,137,0
1876,133,0
1877,132,0
1878,129,0
1879,128,0
1880,125,0
1881,118,0
1882,109,0
1884,101,0
1885,95,0
1886,91,0
1887,89,0
1888,88,0
1889,89,0
1890,91,0
1891,94,0
1892,102,0
1893,109,0
1894,115,0
1895,117,0
1896,119,0
1897,119,0
1898,119,0
1899,120,0
1900,119,0
1901,119,0
1902,115,0
1903,111,0
1904,110,0
1905,111,0
1906,113,0
1907,116,0
1908,117,0
1909,120,0
1910,120,0
1911,123,0
1912,128,0
1913,133,0
1914,132,0
1915,131,0
1916,129,0
1917,126,0
1918,124,0
1919,123,0
1920,121,0
1921,118,0
1922,113,0
1923,110,0
1924,108,0
1925,110,0
1927,112,0
1928,115,0
1929,116,0
1930,118,0
1931,120,0
1932,124,0
1933,129,0
1934,132,0
1935,131,0
1936,130,0
1937,127,0
1938,125,0
1939,123,0
1940,121,0
1941,119,0
1942,115,0
1943,110,0
1944,108,0
1945,108,0
1946,110,0
1947,112,0
1948,115,0
1949,116,0
1950,119,0
1951,120,0
1952,126,0
1953,129,0
1954,133,0
1955,130,0
1956,129,0
1957,126,0
1958,124,0
1959,123,0
1960,121,0
1961,119,0
1961,113,0
1962,109,0
1963,108,0
1964,109,0
1965,111,0
1966,114,0
1967,116,0
1969,117,0
1970,119,0
1971,122,0
1972,128,0
1973,130,0
1974,132,0
1975,130,0
1976,128,0
1977,126,0
1978,124,0
1979,121,0
1980,121,0
1981,117,0
1982,112,0
1983,108,0
1984,109,0
1985,109,0
1986,112,0
1987,114,0
1988,116,0
1989,118,0
1990,119,0
1991,124,0
1992,129,0
1993,131,0
1994,131,0
1995,130,0
1996,127,0
1997,123,0
1998,123,0
1999,121,0
2000,120,0
2001,114,0
2002,111,0
2003,108,0
2004,109,0
2005,110,0
2006,114,0
2007,114,0
2008,118,0
2009,119,0
2010,121,0
2012,126,0
2013,131,0
2014,132,0
2015,130,0
2016,128,0
2017,126,0
2018,123,0
2019,122,0
2020,120,0
2021,119,0
2022,112,0
2023,110,0
2024,107,0
2025,109,0
2026,111,0
2027,114,0
2028,115,0
2029,118,0
2030,118,0
2031,123,0
2032,127,0
2033,130,0
2034,131,0
2035,130,0
2036,128,0
2037,125,0
2038,122,0
2039,122,0
2040,119,0
2041,116,0
2042,111,0
2043,107,0
2044,105,0
2045,103,0
2046,97,0
2047,120,0
2048,164,0
2049,146,0
2050,142,0
2051,143,0
2052,148,0
2053,147,0
2055,146,0
2056,142,0
2057,139,0
2058,135,0
2059,133,0
2060,130,0
2061,130,0
2062,123,0
2063,117,0
2064,110,0
2065,105,0
2066,97,0
2067,94,0
2068,92,0
2069,90,0
2070,91,0
2071,92,0
2071,98,0
2072,105,0
2073,111,0
2074,115,0
2075,116,0
2076,118,0
2077,118,0
2078,118,0
2079,119,0
2080,118,0
2081,116,0
2082,112,0
2083,110,0
2084,111,0
2085,113,0
2086,115,0
2087,117,0
2088,118,0
2089,121,0
2090,121,0
2091,128,0
2092,131,0
2093,133,0
2094,133,0
2095,131,0
2097,128,0
2098,125,0
2099,122,0
2100,122,0
2101,119,0
2102,114,0
2103,111,0
2104,109,0
2105,109,0
2106,111,0
2107,114,0
2108,117,0
2109,117,0
2110,120,0
2111,122,0
2112,128,0
2113,130,0
2114,132,0
2115,130,0
2116,128,0
2117,125,0
2118,124,0
2119,121,0
2120,121,0
2121,116,0
2122,112,0
2123,108,0
2124,109,0
2125,109,0
2126,112,0
2127,114,0
2128,117,0
2129,118,0
2130,119,0
2131,124,0
2132,129,0
2133,131,0
2134,131,0
2135,129,0
2136,127,0
2137,124,0
2138,123,0
2140,120,0
2141,121,0
2142,115,0
2143,111,0
2144,108,0
2145,109,0
2146,110,0
2147,114,0
2148,114,0
2149,118,0
2150,119,0
2151,121,0
2152,125,0
2153,131,0
2154,132,0
2155,131,0
2156,129,0
2157,126,0
2158,123,0
2159,123,0
2160,120,0
2161,119,0
2162,114,0
2163,110,0
2164,107,0
2165,109,0
2166,111,0
2167,113,0
2168,115,0
2169,117,0
2170,118,0
2171,122,0
2172,127,0
2173,131,0
2174,131,0
2175,129,0
2176,128,0
2177,125,0
2178,122,0
2179,122,0
2180,120,0
2181,117,0
2183,111,0
2184,108,0
2185,108,0
2186,110,0
2187,111,0
2188,114,0
2189,115,0
2190,118,0
2191,118,0
2192,124,0
2193,128,0
2194,131,0
2195,130,0
2196,129,0
2197,127,0
2198,125,0
2199,122,0
2200,121,0
2201,119,0
2202,115,0
2203,109,0
2204,107,0
2205,108,0
2206,111,0
2207,112,0
2208,115,0
2209,116,0
2210,118,0
2211,120,0
2212,126,0
2213,129,0
2214,131,0
2215,129,0
2216,128,0
2217,125,0
2218,124,0
2219,122,0
2220,121,0
2221,119,0
2222,114,0
2223,108,0
2225,108,0
2226,105,0
2227,103,0
2228,98,0
2229,128,0
2230,178,0
2231,143,0
2232,142,0
2233,145,0
2234,149,0
2235,147,0
2236,143,0
2237,139,0
2238,136,0
2239,133,0
2240,131,0
2241,128,0
2242,125,0
2243,120,0
2244,115,0
2245,109,0
2246,104,0
2247,99,0
2248,95,0
2248,92,0
2249,90,0
2250,92,0
2251,95,0
2252,101,0
2253,109,0
2254,112,0
2255,114,0
2256,115,0
2257,117,0
2258,117,0
2259,119,0
2260,118,0
2261,117,0
2262,111,0
2263,110,0
2264,109,0
2265,111,0
2266,114,0
2268,116,0
2269,118,0
2270,119,0
2271,121,0
2272,126,0
2273,130,0
2274,133,0
2275,133,0
2276,131,0
2277,128,0
2278,126,0
2279,123,0
2280,122,0
2281,121,0
2282,116,0
2283,111,0
2284,109,0
2285,108,0
2286,111,0
2287,112,0
2288,116,0
2289,116,0
2290,119,0
2291,121,0
2292,126,0
2293,129,0
2294,132,0
2295,130,0
2296,129,0
2297,125,0
2298,125,0
2299,123,0
2300,122,0
2301,119,0
2302,114,0
2303,109,0
2304,109,0
2305,108,0
2306,112,0
2307,113,0
2308,116,0
2309,118,0
2311,119,0
2312,122,0
2313,128,0
2314,130,0
2315,132,0
2316,130,0
2317,128,0
2318,125,0
2319,123,0
2320,121,0
2321,120,0
2322,116,0
2323,112,0
2324,107,0
2325,109,0
2326,110,0
2327,112,0
2328,114,0
2329,116,0
2330,117,0
2331,119,0
2332,123,0
2333,130,0
2334,131,0
2335,131,0
2336,128,0
2337,128,0
2338,124,0
2339,123,0
2340,121,0
2341,121,0
2342,116,0
2343,111,0
2344,108,0
2345,109,0
2346,110,0
2347,112,0
2348,115,0
2349,117,0
2350,119,0
2351,121,0
2353,126,0
2354,131,0
2355,131,0
2356,130,0
2357,128,0
2358,126,0
2359,123,0
2360,123,0
2361,120,0
2362,118,0
2363,113,0
2364,109,0
2365,107,0
2366,109,0
2367,111,0
2368,114,0
2369,115,0
2370,118,0
2371,119,0
2372,123,0
2373,127,0
2374,131,0
2375,131,0
2376,130,0
2377,128,0
2378,126,0
2379,122,0
2380,122,0
2381,119,0
2382,116,0
2383,111,0
2384,109,0
2385,108,0
2386,110,0
2387,112,0
2388,115,0
2389,115,0
2390,118,0
2391,119,0
2392,124,0
2393,129,0
2394,131,0
2396,130,0
2397,130,0
2398,127,0
2399,124,0
2400,123,0
2401,121,0
2402,119,0
2403,114,0
2404,108,0
2405,106,0
2406,103,0
2407,99,0
2407,90,0
2408,145,0
2409,132,0
2410,131,0
2411,132,0
2412,138,0
2413,141,0
2414,142,0
2415,139,0
2416,137,0
2417,133,0
2418,132,0
2419,129,0
2420,128,0
2421,126,0
2422,119,0
2423,111,0
2424,104,0
2425,97,0
2426,92,0
2427,89,0
2428,87,0
2429,89,0
2430,89,0
2431,92,0
2432,99,0
2433,106,0
2434,113,0
2435,117,0
2436,117,0
2437,119,0
2439,119,0
2440,119,0
2441,120,0
2442,119,0
2443,116,0
2444,111,0
2445,110,0
2446,111,0
2447,113,0
2448,115,0
2449,118,0
2450,118,0
2451,121,0
2452,122,0
2453,128,0
2454,131,0
2455,134,0
2456,132,0
2457,130,0
2458,127,0
2459,125,0
2460,124,0
2461,121,0
2462,119,0
2462,114,0
2463,110,0
2464,109,0
2465,109,0
2466,112,0
2467,114,0
2468,117,0
2469,117,0
2470,119,0
2471,124,0
2472,129,0
2473,131,0
2474,132,0
2475,129,0
2476,128,0
2477,124,0
2478,123,0
2479,121,0
2481,120,0
2482,117,0
2483,111,0
2484,108,0
2485,109,0
2486,109,0
2487,113,0
2488,114,0
2489,116,0
2490,118,0
2491,119,0
2492,125,0
2493,130,0
2494,131,0
2495,131,0
2496,130,0
2497,127,0
2498,124,0
2499,124,0
2500,121,0
2501,120,0
2502,113,0
2503,111,0
2504,109,0
2505,109,0
2506,110,0
2507,114,0
2508,114,0
2509,118,0
2510,119,0
2511,122,0
2512,126,0
2513,131,0
2514,131,0
2515,131,0
2516,128,0
2517,126,0
2518,123,0
2519,122,0
2520,121,0
2521,119,0
2522,114,0
2524,110,0
2525,108,0
2526,110,0
2527,111,0
2528,115,0
2529,116,0
2530,118,0
2531,120,0
2532,124,0
2533,128,0
2534,132,0
2535,131,0
2536,130,0
2537,127,0
2538,125,0
2539,124,0
2540,122,0
2541,120,0
2542,116,0
2543,110,0
2544,108,0
2545,109,0
2546,111,0
2547,111,0
2548,115,0
2549,116,0
2550,118,0
2551,119,0
2552,125,0
2553,129,0
2554,132,0
2555,130,0
2556,129,0
2557,127,0
2558,124,0
2559,123,0
2560,121,0
2561,119,0
2562,114,0
2563,109,0
2564,108,0
2565,108,0
2567,111,0
2568,114,0
2569,115,0
2570,117,0
2571,119,0
2572,121,0
2573,127,0
2574,129,0
2575,131,0
2576,129,0
2577,128,0
2578,124,0
2579,123,0
2580,122,0
2581,120,0
2582,117,0
2583,110,0
2584,105,0
2585,103,0
2586,97,0
2587,90,0
2588,152,0
2589,136,0
2590,133,0
2591,132,0
2592,136,0
2593,141,0
2594,144,0
2595,142,0
2596,140,0
2597,136,0
2598,134,0
2599,131,0
2600,129,0
2601,128,0
2602,123,0
2603,114,0
2604,106,0
2605,97,0
2606,91,0
2607,89,0
2609,87,0
2609,88,0
2610,90,0
2611,92,0
2612,96,0
2613,105,0
2614,113,0
2615,118,0
2616,119,0
2617,120,0
2618,121,0
2619,120,0
2620,121,0
2621,121,0
2622,119,0
2623,113,0
2624,111,0
2625,109,0
2626,113,0
2627,113,0
2628,117,0
2629,118,0
2630,121,0
2631,122,0
2632,126,0
2633,129,0
2634,133,0
2635,133,0
2636,131,0
2637,128,0
2638,126,0
2639,124,0
2640,123,0
2641,121,0
2642,117,0
2643,112,0
2644,109,0
2645,109,0
2646,111,0
2647,113,0
2648,116,0
2649,117,0
2650,118,0
2652,119,0
2653,125,0
2654,130,0
2655,131,0
2656,130,0
2657,129,0
2658,127,0
2659,125,0
2660,123,0
2661,121,0
2662,119,0
2663,113,0
2664,109,0
2665,109,0
2666,108,0
2667,111,0
2668,114,0
2669,115,0
2670,118,0
2671,119,0
2672,121,0
2673,128,0
2674,129,0
2675,132,0
2676,131,0
2677,128,0
2678,124,0
2679,123,0
2680,122,0
2681,121,0
2682,117,0
2683,112,0
2684,108,0
2685,108,0
2686,108,0
2687,111,0
2688,114,0
2689,116,0
2690,117,0
2691,119,0
2692,124,0
2693,129,0
2695,130,0
2696,131,0
2697,128,0
2698,128,0
2699,124,0
2700,123,0
2701,120,0
2702,120,0
2703,115,0
2704,111,0
2705,107,0
2706,108,0
2707,110,0
2708,113,0
2709,114,0
2710,118,0
2711,117,0
2712,120,0
2713,125,0
2714,130,0
2715,131,0
2716,131,0
2717,128,0
2718,127,0
2719,124,0
2720,123,0
2721,120,0
2722,119,0
2723,114,0
2724,109,0
2725,107,0
2726,109,0
2727,110,0
2728,114,0
2729,115,0
2730,117,0
2731,118,0
2732,122,0
2733,128,0
2734,131,0
2735,131,0
2737,130,0
2738,129,0
2739,126,0
2740,124,0
2741,122,0
2742,119,0
2743,117,0
2744,112,0
2745,108,0
2746,107,0
2747,110,0
2748,112,0
2749,115,0
2750,115,0
2751,118,0
2752,118,0
2753,125,0
2754,128,0
2755,132,0
2756,131,0
2757,129,0
2758,128,0
2759,125,0
2760,123,0
2761,122,0
2762,119,0
2763,114,0
2764,110,0
2765,107,0
2766,105,0
2766,101,0
2767,94,0
2768,140,0
2769,143,0
2770,136,0
2771,136,0
2772,140,0
2773,144,0
2774,144,0
2775,143,0
2776,138,0
2777,136,0
2778,132,0
2780,131,0
2781,128,0
2782,127,0
2783,121,0
2784,115,0
2785,108,0
2786,101,0
2787,96,0
2788,91,0
2789,90,0
2790,89,0
2791,91,0
2792,92,0
2793,98,0
2794,106,0
2795,112,0
2796,115,0
2797,116,0
2798,117,0
2799,118,0
2800,118,0
2801,120,0
2802,119,0
2803,115,0
2804,110,0
2805,110,0
2806,110,0
2807,113,0
2808,115,0
2809,118,0
2810,119,0
2811,121,0
2812,122,0
2813,129,0
2814,131,0
2815,134,0
2816,132,0
2817,130,0
2818,126,0
2819,125,0
2820,122,0
2821,122,0
2823,118,0
2824,114,0
2825,109,0
2826,108,0
2827,110,0
2828,112,0
2829,115,0
2830,116,0
2831,118,0
2832,120,0
2833,123,0
2834,129,0
2835,132,0
2836,132,0
2837,130,0
2838,128,0
2839,124,0
2840,124,0
2841,121,0
2842,121,0
2843,116,0
2844,111,0
2845,108,0
2846,110,0
2847,110,0
2848,112,0
2849,115,0
2850,116,0
2851,119,0
2852,119,0
2853,125,0
2853,130,0
2854,132,0
2855,131,0
2856,129,0
2857,127,0
2858,124,0
2859,123,0
2860,120,0
2861,119,0
2862,114,0
2863,110,0
2865,107,0
2866,109,0
2867,111,0
2868,113,0
2869,115,0
2870,118,0
2871,117,0
2872,122,0
2873,127,0
2874,131,0
2875,131,0
2876,131,0
2877,128,0
2878,126,0
2879,123,0
2880,122,0
2881,119,0
2882,117,0
2883,113,0
2884,108,0
2885,108,0
2886,110,0
2887,112,0
2888,114,0
2889,115,0
2890,118,0
2891,119,0
2892,123,0
2893,128,0
2894,131,0
2895,130,0
2896,130,0
2897,127,0
2898,125,0
2899,123,0
2900,121,0
2901,119,0
2902,115,0
2903,110,0
2904,108,0
2905,108,0
2906,110,0
2908,112,0
2909,115,0
2910,116,0
2911,118,0
2912,120,0
2913,125,0
2914,129,0
2915,132,0
2916,130,0
2917,129,0
2918,126,0
2919,125,0
2920,123,0
2921,122,0
2922,119,0
2923,114,0
2924,109,0
2925,108,0
2926,109,0
2927,111,0
2928,114,0
2929,116,0
2930,117,0
2931,118,0
2932,122,0
2933,128,0
2934,130,0
2935,131,0
2936,128,0
2937,128,0
2938,124,0
2939,123,0
2940,121,0
2941,120,0
2942,118,0
2943,112,0
2944,108,0
2945,108,0
2946,105,0
2947,105,0
2948,99,0
2949,115,0
2951,170,0
2952,140,0
2953,141,0
2954,144,0
2955,147,0
2956,144,0
2957,142,0
2958,137,0
2959,135,0
2960,132,0
2961,130,0
2962,128,0
2963,124,0
2964,118,0
2965,113,0
2966,106,0
2967,102,0
2968,96,0
2969,92,0
2970,90,0
2971,90,0
2972,91,0
2973,96,0
2973,103,0
2974,109,0
2975,113,0
2976,114,0
2977,115,0
2978,117,0
2979,118,0
2980,118,0
2981,119,0
2982,115,0
2983,112,0
2984,110,0
2985,110,0
2986,112,0
2987,115,0
2988,116,0
2989,118,0
2990,120,0
2991,121,0
2993,126,0
2994,131,0
2995,134,0
2996,132,0
2997,130,0
2998,128,0
2999,125,0
3000,122,0
3001,122,0
3002,120,0
3003,114,0
3004,110,0
3005,108,0
3006,109,0
3007,111,0
3008,113,0
3009,116,0
3010,118,0
3011,118,0
3012,122,0
3013,128,0
3014,131,0
3015,132,0
3016,130,0
3017,129,0
3018,125,0
3019,124,0
3020,123,0
3021,121,0
3022,118,0
3023,113,0
3024,109,0
3025,109,0
3026,109,0
3027,112,0
3028,115,0
3029,116,0
3030,118,0
3031,119,0
3032,123,0
3033,129,0
3034,131,0
3036,132,0
3037,129,0
3038,128,0
3039,126,0
3040,123,0
3041,121,0
3042,121,0
3043,115,0
3044,111,0
3045,108,0
3046,108,0
3047,110,0
3048,112,0
3049,114,0
3050,117,0
3051,118,0
3052,120,0
3053,126,0
3054,130,0
3055,131,0
3056,131,0
3057,128,0
3058,127,0
3059,123,0
3060,122,0
3061,121,0
3062,119,0
3063,114,0
3064,109,0
3065,107,0
3066,109,0
3067,110,0
3068,113,0
3069,115,0
3070,116,0
3071,118,0
3072,121,0
3073,126,0
3074,131,0
3075,131,0
3076,130,0
3077,127,0
3079,125,0
3080,123,0
3081,121,0
3082,120,0
3083,117,0
3084,111,0
3085,108,0
3086,107,0
3087,109,0
3088,111,0
3089,114,0
3090,116,0
3091,118,0
3092,118,0
3093,124,0
3094,128,0
3095,131,0
3096,131,0
3097,129,0
3098,127,0
3099,124,0
3100,122,0
3101,121,0
3102,120,0
3103,115,0
3104,110,0
3105,109,0
3106,109,0
3107,111,0
3108,112,0
3109,114,0
3110,117,0
3111,118,0
3112,120,0
3113,125,0
3114,130,0
3115,131,0
3116,129,0
3117,128,0
3118,126,0
3119,123,0
3121,122,0
3122,120,0
3123,119,0
3124,113,0
3125,108,0
3126,105,0
3127,103,0
3128,98,0
3129,89,0
3130,148,0
3131,136,0
3132,133,0
3133,134,0
3134,140,0
3135,143,0
3136,143,0
3137,139,0
3138,136,0
3139,133,0
3140,131,0
3141,128,0
3142,128,0
3143,125,0
3144,118,0
3145,112,0
3146,107,0
3147,100,0
3148,95,0
3149,92,0
3149,90,0
3150,89,0
3151,89,0
3152,93,0
3153,100,0
3154,107,0
3155,112,0
3156,114,0
3157,116,0
3158,116,0
3159,117,0
3160,117,0
3161,118,0
3162,118,0
3164,113,0
3165,109,0
3166,109,0
3167,111,0
3168,113,0
3169,115,0
3170,118,0
3171,120,0
3172,121,0
3173,125,0
3174,129,0
3175,133,0
3176,132,0
3177,130,0
3178,128,0
3179,125,0
3180,124,0
3181,122,0
3182,121,0
3183,116,0
3184,111,0
3185,108,0
3186,108,0
3187,110,0
3188,112,0
3189,114,0
3190,116,0
3191,118,0
3192,118,0
3193,123,0
3194,128,0
3195,132,0
3196,130,0
3197,128,0
3198,126,0
3199,123,0
3200,122,0
3201,120,0
3202,119,0
3203,113,0
3204,109,0
3205,107,0
3207,109,0
3208,109,0
3209,113,0
3210,113,0
3211,116,0
3212,118,0
3213,120,0
3214,127,0
3215,130,0
3216,130,0
3217,129,0
3218,128,0
3219,126,0
3220,123,0
3221,121,0
3222,120,0
3223,117,0
3224,112,0
3225,108,0
3226,107,0
3227,108,0
3228,111,0
3229,113,0
3230,114,0
3231,117,0
3232,118,0
3233,123,0
3234,127,0
3235,130,0
3236,129,0
3237,128,0
3238,126,0
3239,124,0
3240,123,0
3241,121,0
3242,120,0
3243,115,0
3244,110,0
3245,107,0
3246,108,0
3247,109,0
3249,112,0
3250,114,0
3251,116,0
3252,117,0
3253,119,0
3254,125,0
3255,128,0
3256,131,0
3257,129,0
3258,129,0
3259,125,0
3260,123,0
3261,122,0
3262,120,0
3263,118,0
3264,113,0
3265,108,0
3266,107,0
3267,109,0
3268,110,0
3269,113,0
3270,115,0
3271,117,0
3272,118,0
3273,121,0
3274,127,0
3275,131,0
3276,131,0
3277,130,0
3278,128,0
3279,124,0
3280,123,0
3281,121,0
3282,120,0
3283,116,0
3284,111,0
3285,108,0
3286,107,0
3287,109,0
3288,111,0
3289,113,0
3290,115,0
3292,117,0
3293,118,0
3294,123,0
3295,128,0
3296,131,0
3297,131,0
3298,128,0
3299,127,0
3300,125,0
3301,124,0
3302,120,0
3303,120,0
3304,114,0
3305,109,0
3306,105,0
3307,104,0
3308,99,0
3308,92,0
3309,133,0
3310,139,0
3311,132,0
3312,133,0
3313,138,0
3314,142,0
3315,143,0
3316,140,0
3317,137,0
3318,135,0
3319,131,0
3320,130,0
3321,127,0
3322,127,0
3323,120,0
3324,115,0
3325,109,0
3326,103,0
3327,96,0
3328,91,0
3329,90,0
3330,89,0
3331,89,0
3332,91,0
3333,96,0
3335,104,0
3336,110,0
3337,113,0
3338,114,0
3339,116,0
3340,117,0
3341,117,0
3342,118,0
3343,118,0
3344,115,0
3345,110,0
3346,110,0
3347,109,0
3348,112,0
3349,115,0
3350,117,0
3351,118,0
3352,121,0
3353,123,0
3354,128,0
3355,131,0
3356,133,0
3357,131,0
3358,129,0
3359,126,0
3360,124,0
3361,122,0
3362,121,0
3363,118,0
3364,114,0
3365,109,0
3366,108,0
3367,108,0
3368,112,0
3369,114,0
3370,116,0
3371,117,0
3372,119,0
3373,122,0
3374,127,0
3375,130,0
3377,131,0
3377,129,0
3378,128,0
3379,125,0
3380,124,0
3381,121,0
3382,121,0
3383,117,0
3384,111,0
3385,108,0
3386,109,0
3387,109,0
3388,111,0
3389,113,0
3390,116,0
3391,118,0
3392,118,0
3393,124,0
3394,129,0
3395,130,0
3396,131,0
3397,129,0
3398,126,0
3399,123,0
3400,122,0
3401,120,0
3402,120,0
3403,114,0
3404,110,0
3405,107,0
3406,108,0
3407,110,0
3408,113,0
3409,114,0
3410,117,0
3411,117,0
3412,121,0
3413,125,0
3414,130,0
3415,130,0
3416,129,0
3417,127,0
3418,126,0
3420,122,0
3421,122,0
3422,120,0
3423,118,0
3424,112,0
3425,109,0
3426,107,0
3427,109,0
3428,110,0
3429,114,0
3430,115,0
3431,117,0
3432,118,0
3433,121,0
3434,128,0
3435,131,0
3436,130,0
3437,130,0
3438,127,0
3439,125,0
3440,123,0
3441,121,0
3442,119,0
3443,116,0
3444,110,0
3445,108,0
3446,107,0
3447,109,0
3448,112,0
3449,114,0
3450,115,0
3451,117,0
3452,118,0
3453,124,0
3454,128,0
3455,132,0
3456,130,0
3457,128,0
3458,126,0
3459,123,0
3460,122,0
3461,121,0
3463,118,0
3464,114,0
3465,109,0
3466,107,0
3467,108,0
3468,110,0
3469,112,0
3470,115,0
3471,117,0
3472,118,0
3473,121,0
3474,125,0
3475,129,0
3476,131,0
3477,129,0
3478,128,0
3479,125,0
3480,122,0
3481,121,0
3482,119,0
3483,117,0
3484,111,0
3485,106,0
3486,104,0
3487,99,0
3488,93,0
3489,128,0
3490,149,0
3491,138,0
3492,137,0
3493,139,0
3494,143,0
3495,144,0
3496,144,0
3497,140,0
3498,137,0
3499,135,0
3500,131,0
3501,129,0
3502,128,0
3503,123,0
3505,116,0
3506,107,0
3507,99,0
3508,94,0
3509,89,0
3510,88,0
3510,87,0
3511,88,0
3512,91,0
3513,95,0
3514,103,0
3515,109,0
3516,115,0
3517,117,0
3518,119,0
3519,118,0
3520,119,0
3521,120,0
3522,119,0
3523,117,0
3524,113,0
3525,110,0
3526,109,0
3527,110,0
3528,113,0
3529,115,0
3530,118,0
3531,117,0
3532,120,0
3533,123,0
3534,129,0
3535,131,0
3536,132,0
3537,129,0
3538,128,0
3539,125,0
3540,124,0
3541,121,0
3542,121,0
3543,116,0
3544,111,0
3545,108,0
3546,108,0
3548,109,0
3549,112,0
3550,114,0
3551,117,0
3552,118,0
3553,119,0
3554,125,0
3555,129,0
3556,130,0
3557,130,0
3558,129,0
3559,126,0
3560,123,0
3561,123,0
3562,120,0
3563,119,0
3564,114,0
3565,110,0
3566,107,0
3567,109,0
3568,110,0
3569,113,0
3570,114,0
3571,117,0
3572,117,0
3573,121,0
3574,126,0
3575,130,0
3576,130,0
3577,130,0
3578,127,0
3579,126,0
3580,122,0
3581,122,0
3582,119,0
3583,117,0
3584,111,0
3585,109,0
3586,107,0
3587,109,0
3588,111,0
3589,113,0
3591,115,0
3592,117,0
3593,118,0
3594,123,0
3595,127,0
3596,130,0
3597,130,0
3598,128,0
3599,127,0
3600,124,0
3601,122,0
3602,121,0
3603,119,0
3604,116,0
3605,109,0
3606,108,0
3607,107,0
3608,110,0
3609,112,0
3610,114,0
3611,116,0
3612,118,0
3613,119,0
3614,124,0
3615,129,0
3616,131,0
3617,130,0
3618,129,0
3619,125,0
3620,124,0
3621,123,0
3622,121,0
3623,118,0
3624,114,0
3625,109,0
3626,108,0
3627,108,0
3628,111,0
3629,113,0
3630,115,0
3631,117,0
3633,118,0
3634,121,0
3635,127,0
3636,130,0
3637,131,0
3638,129,0
3639,128,0
3640,125,0
3641,123,0
3642,121,0
3643,121,0
3644,117,0
3645,112,0
3646,107,0
3647,108,0
3648,109,0
3649,112,0
3650,113,0
3651,116,0
3652,117,0
3653,118,0
3654,123,0
3655,128,0
3656,131,0
3657,131,0
3658,128,0
3659,128,0
3660,124,0
3661,124,0
3662,120,0
3663,120,0
3664,114,0
3665,109,0
3666,106,0
3667,104,0
3668,99,0
3668,94,0
3669,141,0
3670,146,0
3671,139,0
3672,136,0
3673,142,0
3674,144,0
3676,145,0
3677,143,0
3678,140,0
3679,135,0
3680,134,0
3681,130,0
3682,129,0
3683,127,0
3684,121,0
3685,115,0
3686,109,0
3687,102,0
3688,96,0
3689,92,0
3690,90,0
3691,89,0
3692,90,0
3693,92,0
3694,98,0
3695,106,0
3696,112,0
3697,114,0
3698,116,0
3699,117,0
3700,118,0
3701,118,0
3702,118,0
3703,119,0
3704,115,0
3705,111,0
3706,109,0
3707,110,0
3708,112,0
3709,115,0
3710,117,0
3711,119,0
3712,121,0
3713,122,0
3714,127,0
3715,132,0
3716,133,0
3717,131,0
3719,130,0
3720,127,0
3721,125,0
3722,123,0
3723,122,0
3724,118,0
3725,114,0
3726,110,0
3727,108,0
3728,109,0
3729,110,0
3730,114,0
3731,116,0
3732,117,0
3733,119,0
3734,122,0
3735,128,0
3736,131,0
3737,131,0
3738,130,0
3739,128,0
3740,125,0
3741,124,0
3742,122,0
3743,121,0
3744,116,0
3745,111,0
3746,108,0
3746,108,0
3747,109,0
3748,112,0
3749,114,0
3750,116,0
3751,118,0
3752,118,0
3753,124,0
3754,129,0
3755,131,0
3756,130,0
3757,129,0
3758,127,0
3759,123,0
3761,123,0
3762,121,0
3763,119,0
3764,114,0
3765,110,0
3766,107,0
3767,108,0
3768,110,0
3769,113,0
3770,115,0
3771,117,0
3772,117,0
3773,119,0
3774,125,0
3775,130,0
3776,131,0
3777,129,0
3778,128,0
3779,125,0
3780,124,0
3781,122,0
3782,120,0
3783,117,0
3784,113,0
3785,109,0
3786,108,0
3787,108,0
3788,111,0
3789,113,0
3790,115,0
3791,117,0
3792,118,0
3793,121,0
3794,127,0
3795,131,0
3796,131,0
3797,129,0
3798,127,0
3799,125,0
3800,123,0
3801,121,0
3802,120,0
3804,115,0
3805,110,0
3806,108,0
3807,108,0
3808,108,0
3809,111,0
3810,114,0
3811,116,0
3812,117,0
3813,119,0
3814,123,0
3815,129,0
3816,131,0
3817,130,0
3818,129,0
3819,125,0
3820,124,0
3821,122,0
3822,120,0
3823,118,0
3824,113,0
3825,109,0
3826,107,0
3827,108,0
3828,111,0
3829,112,0
3830,115,0
3831,117,0
3832,118,0
3833,121,0
3834,126,0
3835,130,0
3836,131,0
3837,129,0
3838,128,0
3839,125,0
3840,123,0
3841,121,0
3842,121,0
3843,118,0
3844,111,0
3845,108,0
3847,106,0
3848,106,0
3849,105,0
3850,101,0
3851,91,0
3852,150,0
3853,137,0
3854,136,0
3855,141,0
3856,143,0
3857,144,0
3858,139,0
3859,137,0
3860,134,0
3861,131,0
3862,128,0
3863,128,0
3864,123,0
3865,118,0
3866,114,0
3867,113,0
3868,108,0
3869,103,0
3870,96,0
3871,93,0
3872,90,0
3873,89,0
3874,94,0
3875,99,0
3875,105,0
3876,107,0
3877,110,0
3878,111,0
3879,112,0
3880,114,0
3881,115,0
3882,115,0
3883,114,0
3884,109,0
3885,109,0
3886,108,0
3887,111,0
3889,113,0
3890,116,0
3891,118,0
3892,120,0
3893,121,0
3894,126,0
3895,130,0
3896,133,0
3897,133,0
3898,131,0
3899,128,0
3900,126,0
3901,123,0
3902,122,0
3903,119,0
3904,115,0
3905,110,0
3906,107,0
3907,107,0
3908,110,0
3909,112,0
3910,115,0
3911,116,0
3912,118,0
3913,119,0
3914,126,0
3915,130,0
3916,132,0
3917,130,0
3918,128,0
3919,126,0
3920,123,0
3921,121,0
3922,121,0
3923,117,0
3924,113,0
3925,108,0
3926,109,0
3927,108,0
3928,111,0
3929,113,0
3930,115,0
3932,116,0
3933,119,0
3934,122,0
3935,128,0
3936,130,0
3937,131,0
3938,128,0
3939,127,0
3940,124,0
3941,123,0
3942,120,0
3943,120,0
3944,116,0
3945,111,0
3946,108,0
3947,107,0
3948,108,0
3949,112,0
3950,113,0
3951,116,0
3952,117,0
3953,119,0
3954,124,0
3955,128,0
3956,130,0
3957,130,0
3958,127,0
3959,126,0
3960,122,0
3961,122,0
3962,119,0
3963,119,0
3964,113,0
3965,110,0
3966,106,0
3967,108,0
3968,110,0
3969,112,0
3970,114,0
3971,117,0
3972,118,0
3973,121,0
3975,125,0
3976,130,0
3977,131,0
3978,129,0
3979,128,0
3980,125,0
3981,122,0
3982,122,0
3983,119,0
3984,117,0
3985,112,0
3986,108,0
3987,108,0
3988,109,0
3989,111,0
3990,113,0
3991,114,0
3992,117,0
3993,118,0
3994,123,0
3995,127,0
3996,131,0
3997,130,0
3998,128,0
3999,126,0
4000,124,0
4001,122,0
4002,121,0
4003,119,0
4004,115,0
4005,110,0
4006,108,0
4007,107,0
4008,110,0
4009,112,0
4010,114,0
4011,116,0
4012,117,0
4013,118,0
4014,125,0
4015,128,0
4017,131,0
4018,129,0
4019,128,0
4020,125,0
4021,123,0
4022,122,0
4023,119,0
4024,118,0
4025,112,0
4026,107,0
4027,105,0
4028,102,0
4029,99,0
4030,90,0
4031,146,0
4032,140,0
4033,134,0
4034,137,0
4035,140,0
4036,144,0
4037,143,0
4038,142,0
4039,137,0
4040,135,0
4041,132,0
4042,130,0
4043,128,0
4044,126,0
4045,119,0
4046,114,0
4047,106,0
4048,100,0
4049,94,0
4050,91,0
4050,88,0
4051,88,0
4052,90,0
4053,93,0
4054,100,0
4055,106,0
4056,112,0
4057,114,0
4058,116,0
4060,116,0
4061,117,0
4062,118,0
4063,119,0
4064,117,0
4065,113,0
4066,109,0
4067,109,0
4068,111,0
4069,113,0
4070,115,0
4071,117,0
4072,119,0
4073,120,0
4074,122,0
4075,129,0
4076,131,0
4077,132,0
4078,131,0
4079,129,0
4080,125,0
4081,123,0
4082,121,0
4083,121,0
4084,117,0
4085,112,0
4086,107,0
4087,109,0
4088,108,0
4089,111,0
4090,113,0
4091,116,0
4092,116,0
4093,118,0
4094,124,0
4095,128,0
4096,130,0
4097,130,0
4098,128,0
4099,126,0
4100,123,0
4101,123,0
4103,119,0
4104,119,0
4105,114,0
4106,109,0
4107,106,0
4108,108,0
4109,109,0
4110,112,0
4111,114,0
4112,116,0
4113,117,0
4114,119,0
4115,125,0
4116,130,0
4117,130,0
4118,130,0
4119,127,0
4120,125,0
4121,123,0
4122,121,0
4123,119,0
4124,118,0
4125,111,0
4126,108,0
4127,107,0
4128,108,0
4129,111,0
4130,113,0
4131,114,0
4132,116,0
4133,117,0
4134,121,0
4135,126,0
4136,130,0
4137,130,0
4138,129,0
4139,126,0
4140,125,0
4141,121,0
4142,121,0
4143,119,0
4145,116,0
4146,109,0
4147,108,0
4148,107,0
4149,110,0
4150,112,0
4151,114,0
4152,115,0
4153,117,0
4154,118,0
4155,124,0
4156,128,0
4157,131,0
4158,129,0
4159,128,0
4160,125,0
4161,124,0
4162,122,0
4163,121,0
4164,120,0
4165,114,0
4166,109,0
4167,107,0
4168,107,0
4169,110,0
4170,111,0
4171,115,0
4172,116,0
4173,117,0
4174,119,0
4175,126,0
4176,129,0
4177,131,0
4178,128,0
4179,127,0
4180,125,0
4181,123,0
4182,121,0
4183,120,0
4184,117,0
4185,111,0
4186,108,0
4188,107,0
4189,108,0
4190,111,0
4191,112,0
4192,116,0
4193,117,0
4194,118,0
4195,122,0
4196,128,0
4197,130,0
4198,131,0
4199,129,0
4200,128,0
4201,124,0
4202,122,0
4203,121,0
4203,120,0
4204,115,0
4205,111,0
4206,105,0
4207,106,0
4208,103,0
4209,99,0
4210,92,0
4211,147,0
4212,149,0
4213,141,0
4214,143,0
4215,147,0
4216,147,0
4217,144,0
4218,142,0
4219,137,0
4220,135,0
4221,131,0
4222,130,0
4223,128,0
4224,123,0
4225,117,0
4226,113,0
4227,107,0
4228,101,0
4229,96,0
4231,92,0
4232,90,0
4233,89,0
4234,92,0
4235,97,0
4236,104,0
4237,108,0
4238,113,0
4239,114,0
4240,116,0
4241,116,0
4242,117,0
4243,118,0
4244,118,0
4245,114,0
4246,111,0
4247,108,0
4248,110,0
4249,112,0
4250,115,0
4251,116,0
4252,119,0
4253,120,0
4254,122,0
4255,126,0
4256,132,0
4257,132,0
4258,132,0
4259,129,0
4260,127,0
4261,124,0
4262,123,0
4263,121,0
4264,119,0
4265,114,0
4266,110,0
4267,107,0
4268,109,0
4269,111,0
4270,113,0
4271,115,0
4273,117,0
4274,118,0
4275,122,0
4276,127,0
4277,130,0
4278,130,0
4279,130,0
4280,128,0
4281,125,0
4282,122,0
4283,122,0
4284,119,0
4285,117,0
4286,111,0
4287,109,0
4288,108,0
4289,110,0
4290,112,0
4290,114,0
4291,116,0
4292,118,0
4293,119,0
4294,123,0
4295,128,0
4296,131,0
4297,129,0
4298,129,0
4299,127,0
4300,124,0
4301,123,0
4302,122,0
4303,120,0
4304,114,0
4305,109,0
4306,108,0
4307,107,0
4308,110,0
4309,111,0
4310,115,0
4311,116,0
4312,118,0
4313,119,0
4314,126,0
4316,129,0
4317,131,0
4318,129,0
4319,128,0
4320,126,0
4321,124,0
4322,122,0
4323,121,0
4324,118,0
4325,113,0
4326,108,0
4327,107,0
4328,108,0
4329,110,0
4330,113,0
4331,116,0
4332,117,0
4333,118,0
4334,122,0
4335,127,0
4336,130,0
4337,131,0
4338,128,0
4339,128,0
4340,125,0
4341,123,0
4342,121,0
4343,121,0
4344,116,0
4345,111,0
4346,107,0
4347,108,0
4348,109,0
4349,112,0
4350,114,0
4351,116,0
4352,117,0
4353,119,0
4354,124,0
4355,129,0
4356,131,0
4357,131,0
4359,128,0
4360,127,0
4361,124,0
4362,123,0
4363,120,0
4364,120,0
4365,114,0
4366,109,0
4367,107,0
4368,108,0
4369,109,0
4370,114,0
4371,114,0
4372,117,0
4373,117,0
4374,120,0
4375,126,0
4376,130,0
4377,131,0
4378,130,0
4379,127,0
4380,126,0
4381,122,0
4382,121,0
4383,120,0
4384,118,0
4385,110,0
4386,108,0
4387,105,0
4388,104,0
4389,98,0
4390,91,0
4391,149,0
4392,137,0
4393,135,0
4394,135,0
4395,141,0
4396,143,0
4397,143,0
4398,139,0
4399,137,0
4401,133,0
4402,131,0
4403,128,0
4404,128,0
4405,124,0
4406,118,0
4407,111,0
4408,105,0
4409,99,0
4410,93,0
4411,90,0
4412,88,0
4413,88,0
4413,90,0
4414,93,0
4415,100,0
4416,107,0
4417,112,0
4418,113,0
4419,116,0
4420,117,0
4421,117,0
4422,118,0
4423,117,0
4424,117,0
4425,112,0
4426,110,0
4427,109,0
4428,110,0
4429,113,0
4430,116,0
4431,118,0
4432,119,0
4433,120,0
4434,123,0
4435,128,0
4436,132,0
4437,132,0
4438,129,0
4439,128,0
4440,126,0
4441,123,0
4442,122,0
4444,120,0
4445,116,0
4446,111,0
4447,108,0
4448,108,0
4449,110,0
4450,112,0
4451,115,0
4452,117,0
4453,118,0
4454,119,0
4455,125,0
4456,129,0
4457,131,0
4458,131,0
4459,129,0
4460,127,0
4461,124,0
4462,123,0
4463,120,0
4464,119,0
4465,113,0
4466,110,0
4467,108,0
4468,108,0
4469,111,0
4470,113,0
4471,115,0
4472,117,0
4473,119,0
4474,120,0
4475,127,0
4476,130,0
4477,131,0
4478,130,0
4479,128,0
4480,126,0
4481,123,0
4482,121,0
4483,121,0
4484,117,0
4485,112,0
4487,109,0
4488,108,0
4489,109,0
4490,112,0
4491,113,0
4492,116,0
4493,117,0
4494,119,0
4495,123,0
4496,128,0
4497,131,0
4498,131,0
4499,129,0
4500,128,0
4501,125,0
4502,123,0
4503,122,0
4504,120,0
4505,116,0
4506,111,0
4507,108,0
4508,108,0
4509,109,0
4510,112,0
4511,114,0
4512,116,0
4513,118,0
4514,119,0
4515,126,0
4516,130,0
4517,131,0
4518,130,0
4519,128,0
4520,125,0
4521,124,0
4522,122,0
4523,121,0
4524,118,0
4525,113,0
4526,110,0
4527,107,0
4529,108,0
4530,111,0
4531,113,0
4532,115,0
4533,117,0
4534,118,0
4535,122,0
4536,127,0
4537,130,0
4538,130,0
4539,129,0
4540,127,0
4541,124,0
4542,123,0
4543,122,0
4544,120,0
4545,116,0
4546,112,0
4547,108,0
4548,108,0
4549,110,0
4550,112,0
4551,114,0
4552,116,0
4553,118,0
4554,119,0
4555,123,0
4556,128,0
4557,131,0
4558,131,0
4559,128,0
4560,127,0
4561,124,0
4562,123,0
4563,121,0
4564,120,0
4565,114,0
4566,110,0
4567,107,0
4568,106,0
4569,104,0
4570,100,0
4572,91,0
4573,148,0
4574,151,0
4575,144,0
4576,146,0
4577,149,0
4578,148,0
4579,145,0
4580,141,0
4581,138,0
4582,135,0
4583,133,0
4584,131,0
4585,128,0
4586,121,0
4587,116,0
4588,109,0
4589,105,0
4590,100,0
4591,98,0
4591,96,0
4592,96,0
4593,96,0
4594,99,0
4595,105,0
4596,112,0
4597,117,0
4598,118,0
4599,119,0
4600,119,0
4601,119,0
4602,119,0
4603,118,0
4604,118,0
4605,114,0
4606,110,0
4607,110,0
4608,111,0
4609,112,0
4610,115,0
4611,117,0
4612,119,0
4613,119,0
4615,123,0
4616,128,0
4617,132,0
4618,132,0
4619,130,0
4620,128,0
4621,126,0
4622,123,0
4623,121,0
4624,120,0
4625,117,0
4626,111,0
4627,109,0
4628,107,0
4629,110,0
4630,111,0
4631,114,0
4632,115,0
4633,117,0
4634,118,0
4635,124,0
4636,128,0
4637,131,0
4638,130,0
4639,129,0
4640,127,0
4641,124,0
4642,122,0
4643,121,0
4644,120,0
4645,115,0
4646,109,0
4647,108,0
4648,108,0
4649,110,0
4650,111,0
4651,115,0
4652,117,0
4653,119,0
4654,121,0
4655,126,0
4657,129,0
4658,131,0
4659,130,0
4660,129,0
4661,125,0
4662,124,0
4663,123,0
4664,120,0
4665,118,0
4666,113,0
4667,108,0
4668,108,0
4669,109,0
4670,111,0
4671,113,0
4672,116,0
4673,117,0
4674,118,0
4675,122,0
4676,127,0
4677,130,0
4678,132,0
4679,129,0
4680,127,0
4681,124,0
4682,123,0
4683,121,0
4684,119,0
4685,116,0
4686,111,0
4687,107,0
4688,108,0
4689,109,0
4690,112,0
4691,113,0
4692,115,0
4693,116,0
4694,119,0
4695,124,0
4696,129,0
4697,131,0
4698,130,0
4700,127,0
4701,126,0
4702,124,0
4703,122,0
4704,121,0
4705,120,0
4706,114,0
4707,110,0
4708,107,0
4709,108,0
4710,109,0
4711,113,0
4712,113,0
4713,116,0
4714,117,0
4715,120,0
4716,125,0
4717,130,0
4718,130,0
4719,129,0
4720,127,0
4721,125,0
4722,123,0
4723,121,0
4724,119,0
4725,117,0
4726,111,0
4727,108,0
4728,106,0
4729,109,0
4730,111,0
4731,114,0
4732,114,0
4733,117,0
4734,118,0
4735,122,0
4736,127,0
4737,130,0
4738,129,0
4739,129,0
4740,127,0
4741,125,0
4743,122,0
4744,121,0
4745,120,0
4746,115,0
4747,110,0
4747,107,0
4748,106,0
4749,103,0
4750,99,0
4751,91,0
4752,145,0
4753,148,0
4754,141,0
4755,143,0
4756,147,0
4757,146,0
4758,145,0
4759,142,0
4760,138,0
4761,135,0
4762,132,0
4763,130,0
4764,128,0
4765,123,0
4766,118,0
4767,111,0
4768,107,0
4769,101,0
4770,95,0
4771,92,0
4772,90,0
4773,89,0
4774,91,0
4775,96,0
4776,102,0
4777,110,0
4778,111,0
4779,113,0
4780,115,0
4781,116,0
4782,116,0
4783,117,0
4785,117,0
4786,115,0
4787,110,0
4788,109,0
4789,109,0
4790,112,0
4791,114,0
4792,117,0
4793,118,0
4794,120,0
4795,122,0
4796,128,0
4797,130,0
4798,133,0
4799,131,0
4800,130,0
4801,126,0
4802,125,0
4803,122,0
4804,122,0
4805,119,0
4806,114,0
4807,108,0
4808,108,0
4809,109,0
4810,111,0
4811,114,0
4812,115,0
4813,117,0
4814,119,0
4815,121,0
4816,128,0
4817,130,0
4818,131,0
4819,129,0
4820,128,0
4821,124,0
4822,124,0
4823,121,0
4824,120,0
4825,117,0
4826,112,0
4828,108,0
4829,109,0
4830,110,0
4831,112,0
4832,114,0
4833,116,0
4834,118,0
4834,119,0
4835,124,0
4836,129,0
4837,130,0
4838,132,0
4839,129,0
4840,126,0
4841,123,0
4842,123,0
4843,121,0
4844,120,0
4845,115,0
4846,111,0
4847,107,0
4848,108,0
4849,110,0
4850,113,0
4851,114,0
4852,117,0
4853,117,0
4854,120,0
4855,125,0
4856,130,0
4857,131,0
4858,130,0
4859,128,0
4860,126,0
4861,122,0
4862,122,0
4863,119,0
4864,118,0
4865,113,0
4866,108,0
4867,107,0
4868,109,0
4869,111,0
4871,113,0
4872,115,0
4873,116,0
4874,117,0
4875,122,0
4876,126,0
4877,131,0
4878,131,0
4879,130,0
4880,126,0
4881,125,0
4882,123,0
4883,121,0
4884,119,0
4885,117,0
4886,110,0
4887,108,0
4888,107,0
4889,109,0
4890,111,0
4891,114,0
4892,116,0
4893,118,0
4894,118,0
4895,124,0
4896,129,0
4897,132,0
4898,130,0
4899,129,0
4900,126,0
4901,124,0
4902,121,0
4903,121,0
4904,119,0
4905,114,0
4906,108,0
4907,107,0
4908,108,0
4909,111,0
4910,113,0
4911,114,0
4913,117,0
4914,118,0
4915,120,0
4916,126,0
4917,129,0
4918,132,0
4919,129,0
4920,128,0
4921,125,0
4922,123,0
4923,121,0
4924,120,0
4925,118,0
4926,111,0
4927,106,0
4928,104,0
4929,100,0
4930,95,0
4931,124,0
4932,149,0
4933,136,0
4934,133,0
4935,137,0
4936,141,0
4937,144,0
4938,143,0
4939,140,0
4940,137,0
4941,134,0
4942,131,0
4943,129,0
4944,128,0
4945,124,0
4946,116,0
4947,110,0
4948,102,0
4949,96,0
4950,92,0
4951,88,0
4952,89,0
4953,88,0
4954,91,0
4954,95,0
4956,102,0
4957,109,0
4958,114,0
4959,116,0
4960,118,0
4961,117,0
4962,118,0
4963,119,0
4964,119,0
4965,116,0
4966,112,0
4967,109,0
4968,109,0
4969,111,0
4970,113,0
4971,115,0
4972,118,0
4973,119,0
4974,120,0
4975,124,0
4976,130,0
4977,132,0
4978,132,0
4979,130,0
4980,128,0
4981,124,0
4982,124,0
4983,121,0
4984,121,0
4985,116,0
4986,111,0
4987,107,0
4988,109,0
4989,109,0
4990,113,0
4991,114,0
4992,116,0
4993,118,0
4994,119,0
4995,125,0
4996,130,0
4997,131,0
4999,131,0
