timestamp_ms,emg_raw,lead_off
0,301,0
0,277,0
1,261,0
1,246,0
2,234,0
2,226,0
2,220,0
3,214,0
3,209,0
4,205,0
4,196,0
5,189,0
7,179,0
8,171,0
8,166,0
9,160,0
10,154,0
11,150,0
11,147,0
12,144,0
13,139,0
14,133,0
15,128,0
16,125,0
16,126,0
17,126,0
18,128,0
19,129,0
20,129,0
21,130,0
21,131,0
22,131,0
23,135,0
24,139,0
25,141,0
26,141,0
26,137,0
27,136,0
28,133,0
29,131,0
30,129,0
31,128,0
31,127,0
32,125,0
33,121,0
34,117,0
35,115,0
36,115,0
36,117,0
37,118,0
38,121,0
39,122,0
40,124,0
41,124,0
41,125,0
42,126,0
43,131,0
44,135,0
45,137,0
46,136,0
46,133,0
47,131,0
49,128,0
50,126,0
51,124,0
51,124,0
52,123,0
53,119,0
54,115,0
55,113,0
56,111,0
56,112,0
57,114,0
58,117,0
59,119,0
60,119,0
61,121,0
61,123,0
62,124,0
63,128,0
64,132,0
65,135,0
66,136,0
66,133,0
67,130,0
68,129,0
69,127,0
70,125,0
71,123,0
71,123,0
72,121,0
73,117,0
74,114,0
75,111,0
76,111,0
76,112,0
77,115,0
78,117,0
79,119,0
80,120,0
81,122,0
81,123,0
82,124,0
83,128,0
84,133,0
85,135,0
86,134,0
86,131,0
87,130,0
88,128,0
89,126,0
90,123,0
90,123,0
92,121,0
93,120,0
94,115,0
95,112,0
96,111,0
96,112,0
97,113,0
98,115,0
99,118,0
100,120,0
101,118,0
102,117,0
103,112,0
103,113,0
104,111,0
105,107,0
106,166,0
107,172,0
108,150,0
109,137,0
110,128,0
111,122,0
112,116,0
113,112,0
113,108,0
114,103,0
115,102,0
116,103,0
117,105,0
118,109,0
119,110,0
120,111,0
121,112,0
122,114,0
123,118,0
124,122,0
124,125,0
125,125,0
126,122,0
127,120,0
128,118,0
129,116,0
130,115,0
131,114,0
132,112,0
133,108,0
135,102,0
135,102,0
136,101,0
137,104,0
138,106,0
139,108,0
140,110,0
141,110,0
142,111,0
143,113,0
144,118,0
145,122,0
146,124,0
146,122,0
147,120,0
148,118,0
149,115,0
150,113,0
151,112,0
152,112,0
153,110,0
154,104,0
155,102,0
156,100,0
156,102,0
157,103,0
158,105,0
159,108,0
160,111,0
161,111,0
162,112,0
163,116,0
164,121,0
165,122,0
166,122,0
167,121,0
167,119,0
168,116,0
169,114,0
170,113,0
171,111,0
172,110,0
173,106,0
174,102,0
175,101,0
177,101,0
178,104,0
178,106,0
179,108,0
180,109,0
181,110,0
182,112,0
183,115,0
184,120,0
185,123,0
186,124,0
187,122,0
188,120,0
189,118,0
189,115,0
190,114,0
191,113,0
192,112,0
193,109,0
194,104,0
195,102,0
196,101,0
197,103,0
198,105,0
199,108,0
199,110,0
200,112,0
201,113,0
202,113,0
203,118,0
204,123,0
205,125,0
206,123,0
207,121,0
208,119,0
209,116,0
210,114,0
210,112,0
211,112,0
212,111,0
213,105,0
214,102,0
215,101,0
216,101,0
217,103,0
218,106,0
220,109,0
221,110,0
221,112,0
222,113,0
223,116,0
224,120,0
225,123,0
226,124,0
227,123,0
228,120,0
229,118,0
230,116,0
231,113,0
232,112,0
232,111,0
233,107,0
234,103,0
235,102,0
236,102,0
237,104,0
238,105,0
239,108,0
240,109,0
241,111,0
242,113,0
242,114,0
243,119,0
244,123,0
245,124,0
246,122,0
247,120,0
248,118,0
249,117,0
250,115,0
251,114,0
252,112,0
253,110,0
253,105,0
254,102,0
255,101,0
256,103,0
257,105,0
258,108,0
259,110,0
260,111,0
261,112,0
263,113,0
264,116,0
265,122,0
265,124,0
266,125,0
267,122,0
268,119,0
269,116,0
270,114,0
271,114,0
272,114,0
273,114,0
274,110,0
275,107,0
275,105,0
276,107,0
277,108,0
278,111,0
279,115,0
280,118,0
281,119,0
282,120,0
283,122,0
284,126,0
285,129,0
286,131,0
286,129,0
287,126,0
288,123,0
289,122,0
290,120,0
291,119,0
292,119,0
293,117,0
294,112,0
295,109,0
296,109,0
296,111,0
297,113,0
298,116,0
299,118,0
300,119,0
301,120,0
302,122,0
303,126,0
305,131,0
306,133,0
307,132,0
308,130,0
308,127,0
309,125,0
310,123,0
311,122,0
312,121,0
313,120,0
314,114,0
315,111,0
316,109,0
317,111,0
318,113,0
318,116,0
319,118,0
320,119,0
321,120,0
322,122,0
323,123,0
324,130,0
325,133,0
326,134,0
327,132,0
328,129,0
329,128,0
329,124,0
330,123,0
331,122,0
332,121,0
333,118,0
334,113,0
335,111,0
336,109,0
337,111,0
338,114,0
339,117,0
339,119,0
340,121,0
341,122,0
342,123,0
343,127,0
344,131,0
345,133,0
346,133,0
348,130,0
349,128,0
350,126,0
351,124,0
351,122,0
352,120,0
353,119,0
354,115,0
355,111,0
356,111,0
357,112,0
358,113,0
359,116,0
360,118,0
361,120,0
361,122,0
362,123,0
363,126,0
364,131,0
365,133,0
366,133,0
367,131,0
368,128,0
369,127,0
370,125,0
371,123,0
372,122,0
372,121,0
373,116,0
374,112,0
375,110,0
376,111,0
377,113,0
378,115,0
379,117,0
380,119,0
381,120,0
382,122,0
382,123,0
383,128,0
384,133,0
385,134,0
386,133,0
387,130,0
388,128,0
389,125,0
391,124,0
392,122,0
393,122,0
394,119,0
394,114,0
395,112,0
396,111,0
397,112,0
398,115,0
399,117,0
400,119,0
401,121,0
402,122,0
403,123,0
404,127,0
404,132,0
405,132,0
406,133,0
407,131,0
408,129,0
409,127,0
410,124,0
411,121,0
412,121,0
413,120,0
414,116,0
415,112,0
415,111,0
416,111,0
417,113,0
418,114,0
419,117,0
420,119,0
421,122,0
422,122,0
423,125,0
424,130,0
425,133,0
425,134,0
426,131,0
427,130,0
428,128,0
429,126,0
430,124,0
431,122,0
433,122,0
434,118,0
435,113,0
436,111,0
437,111,0
437,113,0
438,116,0
439,118,0
440,120,0
441,121,0
442,122,0
443,122,0
444,128,0
445,133,0
446,135,0
447,134,0
447,131,0
448,128,0
449,126,0
450,124,0
451,124,0
452,122,0
453,121,0
454,116,0
455,112,0
456,110,0
457,111,0
458,114,0
458,116,0
459,119,0
460,120,0
461,122,0
462,122,0
463,125,0
464,130,0
465,133,0
466,134,0
467,132,0
468,130,0
468,127,0
469,125,0
470,123,0
471,122,0
472,121,0
473,118,0
474,113,0
476,111,0
477,111,0
478,113,0
479,114,0
480,118,0
480,119,0
481,121,0
482,122,0
483,124,0
484,129,0
485,133,0
486,135,0
487,133,0
488,131,0
489,128,0
490,126,0
490,124,0
491,123,0
492,122,0
493,120,0
494,115,0
495,112,0
496,111,0
497,113,0
498,115,0
499,118,0
500,120,0
501,121,0
501,122,0
502,124,0
503,128,0
504,132,0
505,135,0
506,135,0
507,131,0
508,129,0
509,126,0
510,125,0
511,124,0
511,123,0
512,122,0
513,117,0
514,114,0
515,111,0
516,112,0
517,114,0
519,116,0
520,119,0
521,121,0
522,122,0
523,123,0
523,124,0
524,129,0
525,132,0
526,134,0
527,133,0
528,130,0
529,128,0
530,126,0
531,124,0
532,122,0
533,121,0
533,119,0
534,114,0
535,112,0
536,111,0
537,113,0
538,114,0
539,116,0
540,119,0
541,121,0
542,122,0
543,123,0
544,128,0
544,133,0
545,134,0
546,133,0
547,131,0
548,129,0
549,127,0
550,125,0
551,124,0
552,122,0
553,121,0
554,115,0
554,112,0
555,111,0
556,112,0
557,114,0
558,117,0
559,118,0
561,120,0
562,121,0
563,122,0
564,125,0
565,131,0
566,134,0
566,135,0
567,133,0
568,130,0
569,128,0
570,125,0
571,124,0
572,123,0
573,122,0
574,119,0
575,113,0
576,111,0
576,111,0
577,112,0
578,115,0
579,118,0
580,120,0
581,122,0
582,123,0
583,123,0
584,128,0
585,132,0
586,134,0
587,134,0
587,131,0
588,129,0
589,126,0
590,125,0
591,123,0
592,122,0
593,120,0
594,115,0
595,112,0
596,111,0
597,112,0
597,114,0
598,117,0
599,119,0
600,121,0
601,122,0
602,123,0
604,126,0
605,131,0
606,134,0
607,133,0
608,131,0
609,130,0
609,128,0
610,125,0
611,124,0
612,122,0
613,121,0
614,116,0
615,111,0
616,111,0
617,111,0
618,113,0
619,115,0
619,118,0
620,119,0
621,120,0
622,121,0
623,124,0
624,129,0
625,133,0
626,134,0
627,132,0
628,129,0
629,127,0
630,125,0
630,123,0
631,122,0
632,121,0
633,119,0
634,114,0
635,111,0
636,110,0
637,111,0
638,114,0
639,117,0
640,118,0
640,118,0
641,114,0
642,110,0
643,109,0
644,108,0
645,105,0
647,168,0
648,208,0
649,238,0
650,260,0
651,279,0
652,296,0
652,309,0
653,320,0
654,327,0
655,331,0
656,336,0
657,321,0
658,336,0
659,346,0
660,322,0
661,284,0
662,258,0
662,237,0
663,222,0
664,213,0
665,203,0
666,194,0
667,183,0
668,175,0
669,166,0
670,159,0
671,152,0
672,145,0
673,138,0
673,128,0
674,119,0
675,113,0
676,109,0
677,109,0
678,109,0
679,110,0
680,111,0
681,112,0
682,114,0
683,116,0
683,121,0
684,126,0
685,127,0
686,126,0
687,125,0
689,122,0
690,119,0
691,118,0
692,117,0
693,115,0
694,113,0
695,109,0
695,105,0
696,104,0
697,105,0
698,106,0
699,109,0
700,111,0
701,112,0
702,114,0
703,115,0
704,118,0
705,123,0
705,125,0
706,125,0
707,123,0
708,121,0
709,117,0
710,115,0
711,114,0
712,113,0
713,112,0
714,109,0
715,104,0
716,102,0
716,102,0
717,103,0
718,105,0
719,107,0
720,110,0
721,111,0
722,113,0
723,114,0
724,118,0
725,122,0
726,124,0
726,122,0
727,121,0
728,119,0
729,117,0
730,115,0
732,113,0
733,112,0
734,110,0
735,105,0
736,102,0
737,101,0
738,103,0
738,105,0
739,106,0
740,108,0
741,110,0
742,111,0
743,112,0
744,116,0
745,121,0
746,123,0
747,124,0
748,121,0
748,118,0
749,115,0
750,115,0
751,114,0
752,113,0
753,112,0
754,106,0
755,102,0
756,101,0
757,101,0
758,104,0
759,106,0
759,109,0
760,111,0
761,112,0
762,113,0
763,114,0
764,120,0
765,123,0
766,124,0
767,122,0
768,121,0
769,118,0
769,115,0
770,114,0
771,112,0
772,112,0
773,110,0
775,105,0
776,102,0
777,102,0
778,102,0
779,105,0
780,107,0
781,110,0
781,111,0
782,112,0
783,113,0
784,117,0
785,123,0
786,124,0
787,124,0
788,122,0
789,119,0
790,117,0
791,115,0
791,114,0
792,113,0
793,111,0
794,106,0
795,103,0
796,101,0
797,102,0
798,104,0
799,107,0
800,110,0
801,112,0
802,113,0
802,114,0
803,116,0
804,122,0
805,124,0
806,125,0
807,122,0
808,120,0
809,118,0
810,117,0
811,115,0
812,113,0
812,112,0
813,109,0
814,103,0
815,101,0
817,102,0
818,105,0
819,106,0
820,110,0
821,111,0
822,112,0
823,113,0
824,113,0
824,118,0
825,123,0
826,125,0
827,125,0
828,122,0
829,121,0
830,119,0
831,119,0
832,117,0
833,118,0
834,117,0
834,112,0
835,109,0
836,108,0
837,108,0
838,110,0
839,113,0
840,116,0
841,117,0
842,118,0
843,120,0
844,122,0
845,127,0
845,130,0
846,130,0
847,129,0
848,127,0
849,124,0
850,122,0
851,120,0
852,120,0
853,119,0
854,115,0
855,111,0
855,110,0
856,110,0
857,112,0
858,114,0
860,116,0
861,118,0
862,119,0
863,121,0
864,123,0
865,128,0
866,132,0
867,133,0
867,131,0
868,128,0
869,126,0
870,124,0
871,124,0
872,122,0
873,121,0
874,117,0
875,113,0
876,109,0
877,109,0
877,112,0
878,113,0
879,116,0
880,119,0
881,119,0
882,120,0
883,121,0
884,125,0
885,131,0
886,133,0
887,133,0
888,130,0
888,128,0
889,126,0
890,124,0
891,123,0
892,121,0
893,120,0
894,115,0
895,111,0
896,110,0
897,110,0
898,112,0
898,115,0
899,118,0
900,119,0
901,121,0
903,122,0
904,124,0
905,130,0
906,133,0
907,133,0
908,131,0
909,129,0
910,126,0
910,124,0
911,122,0
912,121,0
913,119,0
914,117,0
915,113,0
916,111,0
917,111,0
918,112,0
919,114,0
920,116,0
920,118,0
921,120,0
922,122,0
923,123,0
924,128,0
925,132,0
926,133,0
927,132,0
928,129,0
929,128,0
930,126,0
931,124,0
931,123,0
932,122,0
933,120,0
934,115,0
935,110,0
936,109,0
937,111,0
938,113,0
939,116,0
940,118,0
941,119,0
941,121,0
942,121,0
943,124,0
945,130,0
946,133,0
947,134,0
948,131,0
949,128,0
950,126,0
951,124,0
952,122,0
953,121,0
953,120,0
954,116,0
955,112,0
956,109,0
957,109,0
958,111,0
959,113,0
960,117,0
961,119,0
962,120,0
963,122,0
963,122,0
964,127,0
965,130,0
966,133,0
967,132,0
968,130,0
969,128,0
970,125,0
971,123,0
972,121,0
973,120,0
974,118,0
974,114,0
975,111,0
976,109,0
977,111,0
978,113,0
979,115,0
980,118,0
981,119,0
982,121,0
983,122,0
984,127,0
984,132,0
985,134,0
986,134,0
988,132,0
989,129,0
990,126,0
991,125,0
992,123,0
993,122,0
994,121,0
995,117,0
996,112,0
996,111,0
997,111,0
998,114,0
999,116,0
1000,118,0
1001,119,0
1002,121,0
1003,122,0
1004,127,0
1005,131,0
1006,135,0
1007,133,0
1008,131,0
1009,127,0
1010,126,0
1011,123,0
1012,122,0
1013,121,0
1014,118,0
1015,112,0
1016,111,0
1017,111,0
1018,115,0
1019,116,0
1020,120,0
1021,120,0
1022,122,0
1023,123,0
1024,129,0
1025,132,0
1026,135,0
1027,132,0
1028,130,0
1029,127,0
1031,126,0
1032,123,0
1033,123,0
1034,120,0
1035,116,0
1036,111,0
1037,112,0
1038,113,0
1039,116,0
1040,118,0
1041,122,0
1042,122,0
1043,124,0
1044,126,0
1045,132,0
1046,135,0
1047,135,0
1048,132,0
1049,131,0
1050,128,0
1051,126,0
1052,124,0
1053,123,0
1054,119,0
1055,115,0
1056,112,0
1057,113,0
1058,113,0
1059,117,0
1060,120,0
1061,122,0
1062,123,0
1063,124,0
1064,128,0
1065,133,0
1066,135,0
1067,135,0
1068,131,0
1069,129,0
1070,128,0
1071,126,0
1073,123,0
1074,123,0
1075,117,0
1076,114,0
1077,113,0
1078,113,0
1079,115,0
1080,118,0
1081,119,0
1082,122,0
1083,122,0
1084,125,0
1085,130,0
1086,135,0
1087,135,0
1088,134,0
1089,130,0
1090,128,0
1091,125,0
1092,125,0
1093,122,0
1094,121,0
1095,115,0
1096,113,0
1097,111,0
1098,114,0
1099,116,0
1100,119,0
1101,121,0
1102,123,0
1103,123,0
1104,127,0
1105,131,0
1106,135,0
1107,134,0
1108,133,0
1109,129,0
1110,127,0
1111,125,0
1112,124,0
1113,122,0
1114,119,0
1116,114,0
1117,112,0
1118,112,0
1119,115,0
1120,116,0
1121,120,0
1122,121,0
1123,124,0
1124,123,0
1125,129,0
1126,133,0
1127,135,0
1128,133,0
1129,132,0
1130,128,0
1131,127,0
1132,124,0
1133,124,0
1134,122,0
1135,117,0
1136,113,0
1137,112,0
1138,113,0
1139,116,0
1140,118,0
1141,121,0
1142,122,0
1143,123,0
1144,124,0
1145,131,0
1146,134,0
1147,136,0
1148,132,0
1149,131,0
1150,128,0
1151,126,0
1152,125,0
1153,123,0
1154,121,0
1155,116,0
1156,112,0
1156,112,0
1157,114,0
1159,116,0
1160,118,0
1161,121,0
1162,121,0
1163,124,0
1164,126,0
1165,132,0
1166,134,0
1167,134,0
1168,130,0
1169,128,0
1170,124,0
1171,124,0
1172,121,0
1173,121,0
1174,116,0
1175,113,0
1176,110,0
1177,111,0
1178,113,0
1179,116,0
1180,118,0
1181,121,0
1182,122,0
1183,123,0
1184,128,0
1185,133,0
1186,135,0
1187,133,0
1188,129,0
1189,128,0
1190,125,0
1191,123,0
1192,122,0
1193,122,0
1194,116,0
1195,112,0
1196,110,0
1197,112,0
1198,114,0
1199,118,0
1201,119,0
1202,121,0
1203,122,0
1204,125,0
1205,130,0
1206,134,0
1207,134,0
1208,131,0
1209,126,0
1210,124,0
1211,121,0
1212,120,0
1213,118,0
1214,116,0
1215,110,0
1216,107,0
1217,103,0
1218,102,0
1219,97,0
1220,91,0
1221,155,0
1222,200,0
1223,237,0
1224,188,0
1225,246,0
1226,284,0
1227,242,0
1228,216,0
1229,197,0
1230,182,0
1231,168,0
1232,158,0
1233,149,0
1234,139,0
1235,129,0
1236,122,0
1237,120,0
1238,119,0
1239,118,0
1240,119,0
1241,119,0
1242,119,0
1244,119,0
1245,123,0
1246,127,0
1247,128,0
1248,126,0
1249,123,0
1250,120,0
1251,117,0
1252,115,0
1253,114,0
1254,113,0
1255,106,0
1256,103,0
1257,101,0
1258,103,0
1259,105,0
1260,108,0
1261,109,0
1262,111,0
1263,111,0
1264,114,0
1265,119,0
1266,123,0
1267,124,0
1268,121,0
1269,118,0
1270,116,0
1271,114,0
1272,113,0
1273,111,0
1274,109,0
1275,105,0
1276,101,0
1277,101,0
1278,103,0
1279,105,0
1280,109,0
1281,109,0
1282,112,0
1283,113,0
1284,117,0
1285,121,0
1287,124,0
1288,124,0
1289,121,0
1290,117,0
1291,116,0
1292,114,0
1293,113,0
1294,111,0
1295,107,0
1296,102,0
1297,101,0
1298,102,0
1299,105,0
1300,106,0
1301,110,0
1302,110,0
1303,112,0
1304,113,0
1305,119,0
1306,123,0
1307,124,0
1308,122,0
1309,120,0
1310,116,0
1311,115,0
1312,113,0
1313,112,0
1314,110,0
1315,106,0
1316,101,0
1317,101,0
1318,102,0
1319,106,0
1320,107,0
1321,110,0
1322,111,0
1323,113,0
1324,114,0
1325,121,0
1326,123,0
1327,125,0
1329,121,0
1330,119,0
1331,116,0
1332,115,0
1333,113,0
1334,113,0
1335,109,0
1336,105,0
1337,101,0
1338,102,0
1339,103,0
1340,107,0
1341,110,0
1342,111,0
1343,112,0
1344,114,0
1345,117,0
1346,123,0
1347,124,0
1348,123,0
1349,120,0
1350,119,0
1351,116,0
1352,114,0
1353,112,0
1354,112,0
1355,107,0
1356,103,0
1357,101,0
1358,103,0
1359,104,0
1360,107,0
1361,109,0
1362,112,0
1363,112,0
1364,114,0
1365,119,0
1366,123,0
1367,125,0
1368,123,0
1369,121,0
1370,117,0
1372,116,0
1373,115,0
1374,114,0
1374,112,0
1375,106,0
1376,103,0
1377,102,0
1378,105,0
1379,106,0
1380,109,0
1381,111,0
1382,113,0
1383,113,0
1384,117,0
1385,121,0
1386,125,0
1387,125,0
1388,123,0
1389,119,0
1390,117,0
1391,115,0
1392,115,0
1393,112,0
1394,110,0
1395,105,0
1396,104,0
1397,105,0
1398,108,0
1399,111,0
1400,114,0
1401,115,0
1402,117,0
1403,118,0
1404,124,0
1405,128,0
1406,131,0
1407,129,0
1408,127,0
1409,125,0
1410,122,0
1411,120,0
1412,119,0
1413,118,0
1415,113,0
1416,109,0
1417,109,0
1418,109,0
1419,113,0
1420,116,0
1421,119,0
1422,120,0
1423,122,0
1424,124,0
1425,130,0
1426,133,0
1427,134,0
1428,131,0
1429,129,0
1430,125,0
1431,124,0
1432,122,0
1433,122,0
1434,118,0
1435,114,0
1436,110,0
1437,111,0
1438,112,0
1439,116,0
1440,118,0
1441,121,0
1442,121,0
1443,123,0
1444,126,0
1445,132,0
1446,134,0
1447,133,0
1448,130,0
1449,129,0
1450,125,0
1451,124,0
1452,122,0
1453,121,0
1454,116,0
1455,113,0
1457,110,0
1458,112,0
1459,113,0
1460,117,0
1461,118,0
1462,121,0
1463,122,0
1464,123,0
1465,128,0
1466,134,0
1467,135,0
1468,133,0
1469,130,0
1470,128,0
1471,126,0
1472,124,0
1473,122,0
1474,121,0
1475,115,0
1476,112,0
1477,110,0
1478,113,0
1479,114,0
1480,118,0
1481,119,0
1482,122,0
1483,122,0
1484,125,0
1485,130,0
1486,134,0
1487,134,0
1488,132,0
1489,128,0
1490,127,0
1491,124,0
1492,123,0
1493,122,0
1494,120,0
1495,114,0
1496,112,0
1497,111,0
1498,114,0
1500,115,0
1501,119,0
1502,119,0
1503,122,0
1504,123,0
1505,128,0
1506,132,0
1507,135,0
1508,134,0
1509,132,0
1510,128,0
1511,127,0
1512,124,0
1513,123,0
1514,122,0
1515,118,0
1516,113,0
1517,111,0
1518,112,0
1519,115,0
1520,117,0
1521,119,0
1522,121,0
1523,123,0
1524,124,0
1525,130,0
1526,133,0
1527,135,0
1528,132,0
1529,131,0
1530,127,0
1531,126,0
1532,123,0
1533,123,0
1534,120,0
1535,115,0
1536,111,0
1537,111,0
1538,112,0
1539,116,0
1540,118,0
1541,120,0
1543,121,0
1544,123,0
1545,126,0
1546,132,0
1547,136,0
1548,135,0
1549,131,0
1550,130,0
1551,126,0
1552,125,0
1553,123,0
1554,123,0
1555,119,0
1556,115,0
1557,111,0
1558,113,0
1559,114,0
1560,118,0
1561,120,0
1562,122,0
1563,122,0
1564,125,0
1565,129,0
1566,134,0
1567,135,0
1568,135,0
1569,131,0
1570,130,0
1571,127,0
1572,126,0
1573,124,0
1574,123,0
1575,117,0
1576,114,0
1577,111,0
1578,114,0
1579,115,0
1580,119,0
1581,120,0
1582,123,0
1583,123,0
1585,125,0
1586,131,0
1587,135,0
1588,135,0
1589,133,0
1590,130,0
1591,128,0
1592,125,0
1593,125,0
1594,122,0
1595,121,0
1596,115,0
1597,112,0
1598,111,0
1599,114,0
1600,116,0
1601,119,0
1602,121,0
1603,124,0
1604,124,0
1605,128,0
1606,132,0
1607,135,0
1608,134,0
1609,132,0
1610,129,0
1611,128,0
1612,125,0
1613,124,0
1614,122,0
1615,119,0
1616,114,0
1617,112,0
1618,112,0
1619,115,0
1620,116,0
1621,121,0
1622,121,0
1623,124,0
1624,124,0
1625,130,0
1626,133,0
1628,136,0
1629,133,0
1630,132,0
1631,130,0
1632,127,0
1633,125,0
1634,124,0
1635,123,0
1635,118,0
1636,114,0
1637,112,0
1638,113,0
1639,117,0
1640,119,0
1641,121,0
1642,122,0
1643,124,0
1644,125,0
1645,131,0
1646,135,0
1647,135,0
1648,132,0
1649,131,0
1650,128,0
1651,126,0
1652,123,0
1653,124,0
1654,119,0
1655,115,0
1656,113,0
1657,113,0
1658,114,0
1659,118,0
1660,120,0
1661,122,0
1662,123,0
1663,125,0
1664,128,0
1665,133,0
1666,135,0
1667,135,0
1668,131,0
1669,130,0
1671,128,0
1672,125,0
1673,123,0
1674,123,0
1675,118,0
1676,115,0
1677,112,0
1678,113,0
1679,115,0
1680,119,0
1681,121,0
1682,123,0
1683,122,0
1684,125,0
1685,129,0
1686,134,0
1687,135,0
1688,134,0
1689,130,0
1690,128,0
1691,126,0
1692,125,0
1693,123,0
1694,122,0
1695,115,0
1696,113,0
1697,111,0
1698,114,0
1699,116,0
1700,119,0
1701,121,0
1702,123,0
1703,123,0
1704,127,0
1705,132,0
1706,135,0
1707,134,0
1708,132,0
1709,129,0
1710,128,0
1711,124,0
1713,124,0
1714,122,0
1715,119,0
1716,114,0
1717,112,0
1718,111,0
1719,115,0
1720,117,0
1721,120,0
1722,121,0
1723,123,0
1724,123,0
1725,128,0
1726,133,0
1727,135,0
1728,133,0
1729,131,0
1730,128,0
1731,126,0
1732,123,0
1733,123,0
1734,121,0
1735,117,0
1736,113,0
1737,112,0
1738,112,0
1739,115,0
1740,117,0
1741,120,0
1742,121,0
1743,122,0
1744,123,0
1745,130,0
1746,133,0
1747,135,0
1748,132,0
1749,130,0
1750,127,0
1751,125,0
1752,123,0
1753,122,0
1754,119,0
1756,114,0
1757,111,0
1758,111,0
1759,113,0
1760,116,0
1761,118,0
1762,121,0
1763,121,0
1764,123,0
1765,126,0
1766,132,0
1767,135,0
1768,134,0
1769,131,0
1770,129,0
1771,125,0
1772,124,0
1773,121,0
1774,121,0
1775,117,0
1776,113,0
1777,110,0
1778,111,0
1779,113,0
1780,117,0
1781,117,0
1782,119,0
1783,117,0
1784,113,0
1785,113,0
1786,113,0
1787,109,0
1788,128,0
1789,184,0
1790,223,0
1791,251,0
1792,275,0
1793,294,0
1794,309,0
1795,316,0
1796,320,0
1797,289,0
1799,316,0
1800,330,0
1801,343,0
1802,352,0
1803,326,0
1804,285,0
1805,257,0
1806,240,0
1807,226,0
1808,211,0
1809,197,0
1810,184,0
1811,173,0
1812,164,0
1813,158,0
1814,150,0
1815,142,0
1816,129,0
1817,121,0
1818,114,0
1819,113,0
1820,112,0
1821,112,0
1822,113,0
1823,114,0
1824,114,0
1825,119,0
1826,123,0
1827,127,0
1828,126,0
1829,125,0
1830,121,0
1831,120,0
1832,117,0
1833,117,0
1834,115,0
1835,111,0
1836,106,0
1837,105,0
1838,105,0
1839,108,0
1841,109,0
1842,113,0
1843,113,0
1844,115,0
1845,115,0
1846,121,0
1847,125,0
1848,126,0
1849,123,0
1850,121,0
1851,117,0
1852,116,0
1853,114,0
1854,114,0
1855,111,0
1856,106,0
1857,102,0
1858,102,0
1859,103,0
1860,106,0
1861,108,0
1862,111,0
1863,111,0
1864,114,0
1865,115,0
1866,122,0
1867,124,0
1868,124,0
1869,121,0
1870,119,0
1871,116,0
1872,115,0
1873,112,0
1874,112,0
1875,109,0
1876,104,0
1877,101,0
1878,102,0
1879,104,0
1880,107,0
1881,109,0
1882,111,0
1884,111,0
1885,113,0
1886,117,0
1887,123,0
1888,124,0
1889,123,0
1890,120,0
1891,118,0
1892,116,0
1893,114,0
1894,113,0
1895,111,0
1896,107,0
1897,103,0
1897,102,0
1898,103,0
1899,104,0
1900,108,0
1901,110,0
1902,112,0
1903,112,0
1904,115,0
1905,119,0
1906,124,0
1907,124,0
1908,122,0
1909,119,0
1910,117,0
1911,115,0
1912,114,0
1913,112,0
1914,111,0
1915,106,0
1916,102,0
1917,101,0
1918,104,0
1919,105,0
1920,109,0
1921,110,0
1922,112,0
1923,113,0
1924,117,0
1925,121,0
1927,124,0
1928,123,0
1929,122,0
1930,118,0
1931,116,0
1932,114,0
1933,113,0
1934,111,0
1935,109,0
1936,104,0
1937,103,0
1938,102,0
1939,105,0
1940,107,0
1941,110,0
1942,111,0
1943,113,0
1944,113,0
1945,119,0
1946,123,0
1947,125,0
1948,123,0
1949,121,0
1950,117,0
1951,116,0
1952,114,0
1953,113,0
1954,111,0
1955,107,0
1956,103,0
1957,103,0
1958,103,0
1959,106,0
1960,108,0
1961,111,0
1962,112,0
1963,114,0
1964,115,0
1965,121,0
1966,124,0
1967,126,0
1969,122,0
1970,121,0
1971,119,0
1972,119,0
1973,117,0
1974,118,0
1975,115,0
1976,111,0
1977,109,0
1978,109,0
1979,110,0
1980,113,0
1981,115,0
1982,117,0
1983,119,0
1984,119,0
1985,123,0
1986,128,0
1987,129,0
1988,130,0
1989,127,0
1990,125,0
1991,122,0
1992,122,0
1993,120,0
1994,120,0
1995,115,0
1996,111,0
1997,109,0
1998,111,0
1999,112,0
2000,117,0
2001,117,0
2002,121,0
2003,122,0
2004,123,0
2005,128,0
2006,132,0
2007,133,0
2008,131,0
2009,128,0
2010,126,0
2012,124,0
2013,122,0
2014,121,0
2015,119,0
2016,114,0
2017,111,0
2018,109,0
2019,112,0
2020,113,0
2021,117,0
2022,119,0
2023,121,0
2024,122,0
2025,125,0
2026,129,0
2027,133,0
2028,133,0
2029,131,0
2030,128,0
2031,125,0
2032,123,0
2033,122,0
2034,120,0
2035,118,0
2036,113,0
2037,111,0
2038,110,0
2039,113,0
2040,115,0
2041,118,0
2042,119,0
2043,122,0
2044,121,0
2045,127,0
2046,131,0
2047,134,0
2048,133,0
2049,130,0
2050,127,0
2051,125,0
2052,122,0
2053,122,0
2055,120,0
2056,116,0
2057,111,0
2058,110,0
2059,111,0
2060,114,0
2061,116,0
2062,120,0
2063,120,0
2064,122,0
2065,123,0
2066,129,0
2067,133,0
2068,134,0
2069,131,0
2070,129,0
2071,125,0
2072,124,0
2073,122,0
2074,121,0
2075,119,0
2076,114,0
2077,110,0
2078,111,0
2079,111,0
2080,115,0
2081,117,0
2082,120,0
2083,120,0
2084,122,0
2085,125,0
2086,131,0
2087,133,0
2088,133,0
2089,130,0
2090,129,0
2091,125,0
2092,124,0
2093,122,0
2094,121,0
2095,117,0
2097,113,0
2098,110,0
2099,111,0
2100,112,0
2101,116,0
2102,118,0
2103,120,0
2104,121,0
2105,123,0
2106,128,0
2107,133,0
2108,134,0
2109,133,0
2110,129,0
2111,127,0
2112,125,0
2113,123,0
2114,120,0
2115,121,0
2116,115,0
2117,112,0
2118,110,0
2119,112,0
2120,113,0
2121,117,0
2122,119,0
2123,120,0
2124,121,0
2125,124,0
2126,129,0
2127,133,0
2128,133,0
2129,132,0
2130,128,0
2131,126,0
2132,124,0
2133,122,0
2134,121,0
2135,120,0
2136,114,0
2137,111,0
2138,110,0
2140,113,0
2141,115,0
2142,119,0
2143,119,0
2144,121,0
2145,122,0
2146,127,0
2147,131,0
2148,134,0
2149,133,0
2150,131,0
2151,127,0
2152,126,0
2153,124,0
2154,123,0
2155,121,0
2156,117,0
2157,113,0
2157,111,0
2158,112,0
2159,114,0
2160,115,0
2161,119,0
2162,120,0
2163,123,0
2164,123,0
2165,129,0
2166,132,0
2167,134,0
2168,132,0
2169,130,0
2170,126,0
2171,125,0
2172,122,0
2173,122,0
2174,120,0
2175,115,0
2176,111,0
2177,111,0
2178,112,0
2179,115,0
2180,117,0
2181,120,0
2183,120,0
2184,122,0
2185,125,0
2186,131,0
2187,133,0
2188,134,0
2189,131,0
2190,128,0
2191,125,0
2192,124,0
2193,121,0
2194,122,0
2195,118,0
2196,114,0
2197,111,0
2198,112,0
2199,113,0
2200,117,0
2201,119,0
2202,121,0
2203,121,0
2204,123,0
2205,127,0
2206,133,0
2207,134,0
2208,133,0
2209,129,0
2210,128,0
2211,125,0
2212,123,0
2213,121,0
2214,122,0
2215,117,0
2216,113,0
2217,110,0
2218,112,0
2219,114,0
2220,117,0
2221,119,0
2222,121,0
2223,122,0
2225,123,0
2226,128,0
2227,133,0
2228,134,0
2229,132,0
2230,129,0
2231,128,0
2232,125,0
2233,123,0
2234,121,0
2235,120,0
2236,115,0
2237,111,0
2238,109,0
2239,113,0
2240,115,0
2241,118,0
2242,119,0
2243,121,0
2244,123,0
2245,126,0
2246,130,0
2247,134,0
2248,134,0
2249,131,0
2250,128,0
2251,126,0
2252,123,0
2253,122,0
2254,121,0
2255,118,0
2256,113,0
2257,111,0
2258,111,0
2259,114,0
2260,116,0
2261,118,0
2262,120,0
2263,122,0
2264,121,0
2265,127,0
2266,132,0
2268,134,0
2269,131,0
2270,130,0
2271,126,0
2272,125,0
2273,123,0
2274,122,0
2275,120,0
2276,117,0
2277,111,0
2278,110,0
2279,111,0
2280,115,0
2281,116,0
2282,119,0
2283,120,0
2284,122,0
2285,123,0
2286,129,0
2287,132,0
2288,133,0
2289,130,0
2290,128,0
2291,125,0
2292,124,0
2293,121,0
2294,120,0
2295,118,0
2296,113,0
2297,110,0
2298,111,0
2299,111,0
2300,115,0
2301,117,0
2302,120,0
2303,119,0
2304,121,0
2305,124,0
2306,130,0
2307,132,0
2308,132,0
2309,129,0
2311,127,0
2312,124,0
2313,123,0
2314,121,0
2315,121,0
2316,117,0
2317,112,0
2318,109,0
2319,111,0
2320,112,0
2321,116,0
2322,117,0
2323,120,0
2324,122,0
2325,123,0
2326,127,0
2327,133,0
2328,133,0
2329,131,0
2330,128,0
2331,127,0
2332,123,0
2333,122,0
2334,120,0
2335,120,0
2336,115,0
2337,111,0
2338,109,0
2339,111,0
2340,113,0
2341,117,0
2342,118,0
2343,120,0
2344,120,0
2345,120,0
2346,121,0
2347,122,0
2348,118,0
2349,112,0
2350,105,0
2351,99,0
2353,112,0
2354,175,0
2355,215,0
2356,244,0
2357,264,0
2358,274,0
2359,228,0
2360,268,0
2361,293,0
2362,312,0
2363,328,0
2364,339,0
2365,349,0
2366,275,0
2367,297,0
2368,261,0
2369,239,0
2370,220,0
2371,203,0
2372,188,0
2373,178,0
2374,168,0
2375,160,0
2376,148,0
2377,137,0
2378,128,0
2379,122,0
2380,119,0
2381,117,0
2382,116,0
2383,115,0
2384,116,0
2385,117,0
2386,122,0
2387,126,0
2388,127,0
2389,126,0
2390,123,0
2391,121,0
2392,119,0
2393,118,0
2394,116,0
2396,115,0
2397,110,0
2397,106,0
2398,105,0
2399,106,0
2400,108,0
2401,111,0
2402,112,0
2403,114,0
2404,115,0
2405,118,0
2406,123,0
2407,126,0
2408,126,0
2409,123,0
2410,120,0
2411,118,0
2412,115,0
2413,114,0
2414,113,0
2415,111,0
2416,105,0
2417,103,0
2418,102,0
2419,105,0
2420,107,0
2421,110,0
2422,111,0
2423,113,0
2424,113,0
2425,119,0
2426,122,0
2427,125,0
2428,123,0
2429,122,0
2430,119,0
2431,117,0
2432,115,0
2433,114,0
2434,112,0
2435,109,0
2436,104,0
2437,103,0
2439,103,0
2440,106,0
2441,107,0
2442,110,0
2443,111,0
2444,113,0
2445,114,0
2446,120,0
2447,123,0
2448,125,0
2449,122,0
2450,121,0
2451,117,0
2452,116,0
2453,114,0
2454,114,0
2455,111,0
2456,106,0
2457,102,0
2458,103,0
2459,104,0
2460,106,0
2461,109,0
2462,112,0
2463,112,0
2464,114,0
2465,116,0
2466,122,0
2467,124,0
2468,125,0
2469,121,0
2470,120,0
2471,117,0
2472,115,0
2473,113,0
2474,112,0
2475,109,0
2476,105,0
2477,102,0
2478,103,0
2479,105,0
2481,109,0
2482,111,0
2483,112,0
2484,113,0
2485,115,0
2486,119,0
2487,125,0
2488,126,0
2489,125,0
2490,121,0
2491,119,0
2492,118,0
2493,116,0
2494,113,0
2495,113,0
2496,108,0
2497,105,0
2498,103,0
2499,104,0
2500,106,0
2501,110,0
2502,111,0
2503,113,0
2504,114,0
2505,117,0
2506,122,0
2507,126,0
2508,125,0
2509,124,0
2510,120,0
2511,118,0
2512,116,0
2513,115,0
2514,113,0
2515,112,0
2516,105,0
2517,104,0
2518,103,0
2519,105,0
2520,107,0
2521,111,0
2522,111,0
2524,114,0
2525,114,0
2526,119,0
2527,123,0
2528,126,0
2529,124,0
2530,122,0
2531,120,0
2532,117,0
2533,115,0
2534,114,0
2535,113,0
2536,110,0
2537,104,0
2538,104,0
2539,104,0
2540,107,0
2541,109,0
2542,111,0
2543,111,0
2544,112,0
2545,111,0
2546,118,0
2547,122,0
2548,123,0
2549,120,0
2550,118,0
2551,113,0
2552,111,0
2553,108,0
2554,106,0
2555,100,0
2556,92,0
2557,83,0
2558,76,0
2559,148,0
2560,195,0
2561,234,0
2562,262,0
2563,286,0
2564,304,0
2565,268,0
2567,286,0
2568,311,0
2569,330,0
2570,340,0
2571,348,0
2572,354,0
2573,358,0
2574,361,0
2575,366,0
2576,367,0
2577,366,0
2578,365,0
2579,351,0
2580,353,0
2581,363,0
2582,370,0
2583,377,0
2584,380,0
2585,384,0
2586,314,0
2587,357,0
2588,371,0
2589,378,0
2590,382,0
2591,384,0
2592,384,0
2592,385,0
2593,387,0
2594,387,0
2595,385,0
2596,382,0
2597,369,0
2598,333,0
2599,351,0
2600,363,0
2601,371,0
2602,378,0
2603,383,0
2604,354,0
2605,299,0
2606,351,0
2607,365,0
2609,374,0
2610,378,0
2611,381,0
2612,383,0
2613,385,0
2614,386,0
2615,388,0
2616,384,0
2617,382,0
2618,339,0
2619,330,0
2620,321,0
2621,350,0
2622,361,0
2623,371,0
2624,378,0
2625,324,0
2626,336,0
2627,358,0
2628,369,0
2629,377,0
2630,380,0
2631,383,0
2632,384,0
2633,387,0
2634,389,0
2635,386,0
2636,382,0
2637,303,0
2638,257,0
2639,226,0
2640,205,0
2641,192,0
2642,182,0
2643,176,0
2644,172,0
2645,172,0
2646,172,0
2647,172,0
2648,167,0
2649,162,0
2650,155,0
2652,151,0
2653,146,0
2654,143,0
2655,139,0
2656,134,0
2657,127,0
2658,125,0
2659,123,0
2660,125,0
2661,127,0
2662,128,0
2663,129,0
2664,130,0
2665,129,0
2666,134,0
2667,138,0
2668,139,0
2669,137,0
2670,134,0
2671,131,0
2672,129,0
2673,127,0
2674,126,0
2675,123,0
2676,118,0
2677,113,0
2678,113,0
2679,113,0
2680,116,0
2681,118,0
2682,121,0
2683,122,0
2684,124,0
2685,126,0
2686,131,0
2687,135,0
2688,134,0
2689,131,0
2690,129,0
2691,125,0
2692,125,0
2693,122,0
2695,122,0
2696,118,0
2697,114,0
2698,110,0
2699,111,0
2700,112,0
2701,116,0
2702,118,0
2703,120,0
2704,120,0
2705,122,0
2706,125,0
2707,131,0
2708,133,0
2709,132,0
2710,128,0
2711,126,0
2712,123,0
2713,123,0
2714,120,0
2715,120,0
2716,115,0
2717,111,0
2718,108,0
2719,110,0
2720,112,0
2721,115,0
2722,116,0
2723,118,0
2724,120,0
2725,121,0
2726,126,0
2727,131,0
2728,131,0
2729,130,0
2730,126,0
2731,125,0
2732,121,0
2733,120,0
2734,119,0
2735,118,0
2737,112,0
2738,109,0
2739,107,0
2740,111,0
2741,113,0
2742,115,0
2743,117,0
2744,119,0
2745,120,0
2746,124,0
2747,128,0
2748,131,0
2749,131,0
2750,128,0
2751,125,0
2752,123,0
2753,122,0
2754,121,0
2755,118,0
2756,116,0
2757,110,0
2758,109,0
2759,109,0
2760,111,0
2761,114,0
2762,116,0
2763,117,0
2764,119,0
2765,120,0
2766,125,0
2767,128,0
2768,131,0
2769,129,0
2770,128,0
2771,124,0
2772,123,0
2773,120,0
2774,120,0
2775,118,0
2776,113,0
2777,108,0
2778,108,0
2780,109,0
2781,111,0
2782,114,0
2783,116,0
2784,117,0
2785,119,0
2786,121,0
2787,127,0
2788,129,0
2789,131,0
2790,128,0
2791,126,0
2792,122,0
2793,121,0
2794,120,0
2795,118,0
2796,116,0
2797,111,0
2798,107,0
2799,108,0
2800,109,0
2801,112,0
2802,114,0
2803,117,0
2804,117,0
2805,120,0
2806,123,0
2807,128,0
2808,130,0
2809,130,0
2810,128,0
2811,125,0
2812,122,0
2813,121,0
2814,119,0
2815,119,0
2816,116,0
2817,111,0
2818,108,0
2819,110,0
2820,112,0
2821,115,0
2823,117,0
2824,119,0
2825,120,0
2826,122,0
2827,126,0
2828,132,0
2829,131,0
2830,131,0
2831,128,0
2832,125,0
2833,123,0
2834,122,0
2835,120,0
2836,119,0
2837,114,0
2838,110,0
2839,108,0
2840,110,0
2841,111,0
2842,115,0
2843,117,0
2844,119,0
2845,120,0
2846,123,0
2847,128,0
2848,131,0
2849,132,0
2850,130,0
2851,128,0
2852,125,0
2853,122,0
2853,121,0
2854,119,0
2855,117,0
2856,111,0
2857,109,0
2858,109,0
2859,111,0
2860,114,0
2861,116,0
2862,118,0
2863,120,0
2865,121,0
2866,125,0
2867,130,0
2868,133,0
2869,131,0
2870,129,0
2871,125,0
2872,123,0
2873,121,0
2874,121,0
2875,118,0
2876,115,0
2877,109,0
2878,109,0
2879,109,0
2880,112,0
2881,115,0
2882,118,0
2883,120,0
2884,121,0
2885,122,0
2886,128,0
2887,131,0
2888,132,0
2889,130,0
2890,128,0
2891,125,0
2892,123,0
2893,121,0
2894,120,0
2895,118,0
2896,114,0
2897,110,0
2898,110,0
2899,110,0
2900,114,0
2901,117,0
2902,118,0
2903,119,0
2904,121,0
2905,123,0
2906,129,0
2908,131,0
2909,131,0
2910,129,0
2911,126,0
2912,123,0
2913,122,0
2914,120,0
2915,120,0
2916,117,0
2917,111,0
2918,109,0
2919,110,0
2920,111,0
2921,114,0
2922,116,0
2923,119,0
2924,120,0
2925,121,0
2926,125,0
2927,131,0
2928,132,0
2929,131,0
2930,128,0
2931,126,0
2932,123,0
2933,122,0
2934,120,0
2935,120,0
2936,115,0
2937,111,0
2938,109,0
2939,111,0
2940,112,0
2941,115,0
2942,117,0
2943,120,0
2944,122,0
2945,123,0
2946,128,0
2947,132,0
2948,132,0
2949,131,0
2951,128,0
2952,126,0
2953,123,0
2954,121,0
2955,120,0
2956,118,0
2957,113,0
2958,111,0
2959,109,0
2960,112,0
2961,114,0
2962,117,0
2963,119,0
2964,121,0
2965,122,0
2966,125,0
2967,130,0
2968,133,0
2969,133,0
2970,130,0
2971,126,0
2972,125,0
2973,122,0
2974,122,0
2975,120,0
2976,117,0
2977,111,0
2978,111,0
2979,110,0
2980,113,0
2981,115,0
2982,117,0
2983,119,0
2984,121,0
2985,122,0
2986,128,0
2987,131,0
2988,134,0
2989,132,0
2990,130,0
2991,126,0
2993,124,0
2994,122,0
2995,121,0
2996,118,0
2997,114,0
2998,110,0
2999,110,0
3000,111,0
3001,113,0
3002,116,0
3003,119,0
3004,120,0
3005,122,0
3006,123,0
3007,129,0
3008,132,0
3009,134,0
3010,130,0
3011,128,0
3012,124,0
3013,123,0
3014,121,0
3015,120,0
3016,117,0
3017,113,0
3018,109,0
3019,110,0
3020,111,0
3021,114,0
3022,116,0
3023,119,0
3024,121,0
3025,122,0
3026,125,0
3027,131,0
3028,132,0
3029,132,0
3030,129,0
3031,127,0
3032,123,0
3033,123,0
3034,120,0
3036,120,0
3037,116,0
3038,111,0
3039,109,0
3040,111,0
3041,112,0
3042,116,0
3043,117,0
3044,119,0
3045,121,0
3046,123,0
3047,128,0
3048,132,0
3049,133,0
3050,131,0
3051,128,0
3052,126,0
3053,124,0
3054,122,0
3055,120,0
3056,119,0
3057,114,0
3058,111,0
3059,109,0
3060,112,0
3061,113,0
3062,116,0
3063,118,0
3064,121,0
3065,122,0
3066,125,0
3067,129,0
3068,133,0
3069,133,0
3070,131,0
3071,128,0
3072,126,0
3073,123,0
3074,122,0
3075,120,0
3076,118,0
3077,112,0
3079,110,0
3080,109,0
3081,112,0
3082,114,0
3083,117,0
3084,118,0
3085,120,0
3086,122,0
3087,126,0
3088,130,0
3089,133,0
3090,132,0
3091,129,0
3092,125,0
3093,124,0
3094,121,0
3095,121,0
3096,119,0
3097,115,0
3098,110,0
3099,109,0
3100,110,0
3101,112,0
3102,116,0
3103,118,0
3104,118,0
3105,121,0
3106,121,0
3107,128,0
3108,131,0
3109,132,0
3110,130,0
3111,128,0
3112,125,0
3113,123,0
3114,121,0
3115,120,0
3115,117,0
3116,112,0
3117,108,0
3118,109,0
3119,110,0
3121,113,0
3122,116,0
3123,119,0
3124,120,0
3125,122,0
3126,124,0
3127,130,0
3128,132,0
3129,132,0
3130,128,0
3131,128,0
3132,123,0
3133,122,0
3134,120,0
3135,120,0
3136,116,0
3137,111,0
3138,109,0
3139,110,0
3140,111,0
3141,115,0
3142,117,0
3143,120,0
3144,121,0
3145,122,0
3146,126,0
3147,131,0
3148,131,0
3149,130,0
3150,126,0
3151,123,0
3152,120,0
3153,120,0
3154,119,0
3155,118,0
3156,113,0
3157,110,0
3158,107,0
3159,107,0
3160,106,0
3161,105,0
3162,100,0
3164,95,0
3165,88,0
3166,117,0
3167,150,0
3168,179,0
3169,166,0
3170,159,0
3171,153,0
3172,147,0
3173,141,0
3174,137,0
3175,133,0
3176,130,0
3177,122,0
3178,118,0
3179,116,0
3180,116,0
3181,115,0
3182,114,0
3183,111,0
3184,111,0
3185,108,0
3186,111,0
3187,114,0
3188,117,0
3189,117,0
3190,116,0
3191,115,0
3192,113,0
3193,111,0
3194,112,0
3195,111,0
3196,109,0
3197,104,0
3198,103,0
3199,103,0
3200,107,0
3201,108,0
3202,112,0
3203,112,0
3204,115,0
3205,114,0
3207,121,0
3208,125,0
3209,127,0
3210,124,0
3211,123,0
3212,119,0
3213,117,0
3214,114,0
3215,114,0
3216,113,0
3217,108,0
3218,104,0
3219,103,0
3220,104,0
3221,107,0
3222,109,0
3223,112,0
3224,112,0
3225,114,0
3226,115,0
3227,121,0
3228,125,0
3229,126,0
3230,122,0
3231,121,0
3232,117,0
3233,116,0
3234,114,0
3235,114,0
3236,111,0
3237,107,0
3238,103,0
3239,103,0
3240,104,0
3241,107,0
3242,110,0
3243,112,0
3244,113,0
3245,115,0
3246,117,0
3247,123,0
3249,125,0
3250,125,0
3251,122,0
3252,120,0
3253,117,0
3254,116,0
3255,113,0
3256,114,0
3257,109,0
3258,105,0
3259,102,0
3260,104,0
3261,105,0
3262,109,0
3263,111,0
3264,113,0
3265,113,0
3266,115,0
3267,119,0
3268,125,0
3269,125,0
3270,124,0
3271,121,0
3272,119,0
3273,117,0
3274,115,0
3275,113,0
3276,113,0
3277,107,0
3278,104,0
3279,102,0
3280,105,0
3281,106,0
3282,109,0
3283,111,0
3284,113,0
3285,113,0
3286,116,0
3287,121,0
3288,126,0
3289,125,0
3290,123,0
3292,120,0
3293,118,0
3294,115,0
3295,114,0
3296,112,0
3297,110,0
3298,105,0
3299,102,0
3300,102,0
3301,105,0
3302,107,0
3303,110,0
3304,111,0
3305,113,0
3306,114,0
3307,119,0
3308,123,0
3309,126,0
3310,124,0
3311,122,0
3312,119,0
3313,118,0
3314,115,0
3315,114,0
3316,113,0
3317,109,0
3318,104,0
3319,103,0
3320,103,0
3321,106,0
3322,108,0
3323,111,0
3324,112,0
3325,115,0
3326,115,0
3327,121,0
3328,125,0
3329,126,0
3330,124,0
3331,121,0
3332,119,0
3332,117,0
3333,115,0
3335,114,0
3336,111,0
3337,106,0
3338,103,0
3339,103,0
3340,104,0
3341,106,0
3342,106,0
3343,107,0
3344,105,0
3345,105,0
3346,104,0
3347,106,0
3348,104,0
3349,123,0
3350,182,0
3351,222,0
3352,249,0
3353,274,0
3354,291,0
3355,307,0
3356,316,0
3357,323,0
3358,330,0
3359,264,0
3360,305,0
3361,324,0
3362,337,0
3363,348,0
3364,355,0
3365,329,0
3366,308,0
3367,337,0
3368,351,0
3369,361,0
3370,365,0
3371,370,0
3372,373,0
3373,375,0
3374,376,0
3375,379,0
3377,376,0
3378,374,0
3379,343,0
3380,327,0
3381,318,0
3382,351,0
3383,361,0
3384,370,0
3385,375,0
3386,322,0
3387,337,0
3388,357,0
3389,369,0
3390,375,0
3391,378,0
3392,381,0
3393,381,0
3394,383,0
3395,385,0
3396,385,0
3397,382,0
3398,351,0
3399,288,0
3400,307,0
3401,320,0
3402,340,0
3403,353,0
3404,364,0
3405,371,0
3406,298,0
3407,336,0
3408,356,0
3409,366,0
3410,372,0
3411,376,0
3412,379,0
3413,380,0
3414,383,0
3415,384,0
3416,383,0
3417,338,0
3418,289,0
3420,246,0
3421,266,0
3422,275,0
3423,307,0
3424,328,0
3425,283,0
3426,246,0
3427,229,0
3428,216,0
3429,207,0
3430,196,0
3431,186,0
3432,175,0
3433,169,0
3434,161,0
3435,156,0
3436,150,0
3437,141,0
3438,134,0
3439,131,0
3440,130,0
3441,130,0
3442,131,0
3443,132,0
3444,131,0
3445,132,0
3446,132,0
3447,138,0
3448,139,0
3449,139,0
3450,135,0
3451,133,0
3452,129,0
3453,127,0
3454,125,0
3455,123,0
3456,119,0
3457,114,0
3458,112,0
3459,112,0
3460,113,0
3461,116,0
3463,118,0
3464,120,0
3465,120,0
3466,122,0
3467,125,0
3468,131,0
3469,133,0
3470,132,0
3471,128,0
3472,127,0
3473,123,0
3474,123,0
3475,120,0
3476,121,0
3477,115,0
3478,111,0
3479,108,0
3480,110,0
3481,112,0
3482,115,0
3483,117,0
3484,120,0
3485,120,0
3486,122,0
3487,126,0
3488,131,0
3489,131,0
3490,130,0
3491,127,0
3492,125,0
3493,122,0
3494,121,0
3495,120,0
3496,118,0
3497,112,0
3498,110,0
3499,108,0
3500,110,0
3501,112,0
3502,116,0
3503,116,0
3505,119,0
3506,120,0
3507,123,0
3508,128,0
3509,131,0
3510,131,0
3511,129,0
3512,125,0
3513,123,0
3514,122,0
3515,120,0
3516,118,0
3517,115,0
3518,110,0
3519,108,0
3520,108,0
3521,111,0
3522,114,0
3523,116,0
3524,117,0
3525,119,0
3526,120,0
3527,125,0
3528,129,0
3529,132,0
3530,129,0
3531,128,0
3532,124,0
3533,123,0
3534,121,0
3535,120,0
3536,119,0
3537,113,0
3538,109,0
3539,108,0
3540,109,0
3541,112,0
3542,114,0
3543,117,0
3544,118,0
3545,119,0
3546,121,0
3548,127,0
3549,130,0
3550,131,0
3551,129,0
3552,126,0
3553,123,0
3554,122,0
3555,119,0
3556,119,0
3557,117,0
3558,111,0
3559,107,0
3560,107,0
3561,110,0
3562,112,0
3563,113,0
3564,116,0
3565,117,0
3566,119,0
3567,122,0
3568,128,0
3569,129,0
3570,130,0
3571,127,0
3572,125,0
3573,121,0
3574,120,0
3575,119,0
3576,117,0
3577,113,0
3578,109,0
3579,107,0
3580,109,0
3581,111,0
3582,113,0
3583,115,0
3584,117,0
3585,118,0
3586,119,0
3587,123,0
3588,129,0
3589,131,0
3591,129,0
3592,127,0
3593,124,0
3594,122,0
3594,120,0
3595,119,0
3596,118,0
3597,111,0
3598,109,0
3599,107,0
3600,109,0
3601,111,0
3602,114,0
3603,115,0
3604,118,0
3605,119,0
3606,122,0
3607,126,0
3608,129,0
3609,129,0
3610,127,0
3611,125,0
3612,123,0
3613,121,0
3614,121,0
3615,120,0
3616,118,0
3617,111,0
3618,110,0
3619,109,0
3620,111,0
3621,113,0
3622,116,0
3623,117,0
3624,120,0
3625,121,0
3626,125,0
3627,129,0
3628,132,0
3629,129,0
3630,128,0
3631,124,0
3633,123,0
3634,121,0
3635,119,0
3636,120,0
3637,114,0
3638,110,0
3639,109,0
3640,109,0
3641,111,0
3642,114,0
3643,117,0
3644,118,0
3645,120,0
3646,122,0
3647,127,0
3648,130,0
3649,133,0
3650,130,0
3651,128,0
3652,124,0
3653,123,0
3654,120,0
3655,119,0
3656,117,0
3657,113,0
3658,108,0
3659,108,0
3660,110,0
3661,113,0
3662,115,0
3663,117,0
3664,119,0
3665,120,0
3666,122,0
3667,129,0
3668,131,0
3669,131,0
3670,129,0
3671,126,0
3672,123,0
3673,121,0
3674,120,0
3676,119,0
3677,116,0
3678,111,0
3679,108,0
3680,109,0
3681,110,0
3682,114,0
3683,116,0
3684,119,0
3685,120,0
3686,121,0
3687,125,0
3688,130,0
3689,131,0
3690,131,0
3691,128,0
3692,126,0
3693,122,0
3694,121,0
3695,119,0
3696,119,0
3697,114,0
3698,110,0
3699,108,0
3700,111,0
3701,113,0
3702,115,0
3703,117,0
3704,120,0
3705,120,0
3706,123,0
3707,128,0
3708,132,0
3709,132,0
3710,130,0
3711,126,0
3712,125,0
3713,123,0
3714,121,0
3715,119,0
3716,117,0
3717,112,0
3719,110,0
3720,108,0
3721,111,0
3722,114,0
3723,116,0
3724,117,0
3725,120,0
3726,122,0
3727,124,0
3728,129,0
3729,132,0
3730,131,0
3731,129,0
3732,126,0
3733,125,0
3734,123,0
3735,121,0
3736,119,0
3737,116,0
3738,111,0
3739,109,0
3740,109,0
3741,112,0
3742,115,0
3743,117,0
3744,118,0
3745,121,0
3746,122,0
3747,128,0
3748,131,0
3749,134,0
3750,132,0
3751,129,0
3752,125,0
3753,124,0
3754,121,0
3755,121,0
3756,118,0
3757,114,0
3758,109,0
3759,109,0
3761,110,0
3762,113,0
3763,116,0
3764,118,0
3765,120,0
3766,121,0
3767,123,0
3768,130,0
3769,131,0
3770,133,0
3771,130,0
3772,128,0
3773,124,0
3774,123,0
3775,120,0
3776,120,0
3777,117,0
3778,112,0
3779,108,0
3780,110,0
3781,110,0
3782,113,0
3783,116,0
3784,118,0
3785,120,0
3786,121,0
3787,125,0
3788,131,0
3789,133,0
3790,133,0
3791,129,0
3792,126,0
3793,123,0
3794,122,0
3795,120,0
3796,120,0
3797,115,0
3798,111,0
3799,108,0
3800,110,0
3801,111,0
3802,115,0
3804,118,0
3805,119,0
3806,121,0
3807,123,0
3808,127,0
3809,132,0
3810,133,0
3811,131,0
3812,128,0
3813,126,0
3814,122,0
3815,122,0
3816,120,0
3817,119,0
3818,114,0
3819,111,0
3820,108,0
3821,111,0
3822,112,0
3823,117,0
3824,118,0
3825,121,0
3826,122,0
3827,125,0
3828,129,0
3829,133,0
3830,133,0
3831,131,0
3832,128,0
3833,126,0
3834,123,0
3835,122,0
3836,119,0
3837,117,0
3838,112,0
3839,110,0
3840,109,0
3841,113,0
3842,115,0
3843,117,0
3844,119,0
3845,121,0
3847,122,0
3848,127,0
3849,131,0
3850,134,0
3851,132,0
3852,129,0
3853,128,0
3854,125,0
3855,122,0
3855,121,0
3856,120,0
3857,115,0
3858,111,0
3859,109,0
3860,110,0
3861,113,0
3862,114,0
3863,118,0
3864,119,0
3865,121,0
3866,122,0
3867,129,0
3868,132,0
3869,133,0
3870,131,0
3871,129,0
3872,125,0
3873,123,0
3874,121,0
3875,121,0
3876,118,0
3877,113,0
3878,109,0
3879,109,0
3880,110,0
3881,114,0
3882,116,0
3883,119,0
3884,121,0
3885,121,0
3886,124,0
3887,130,0
3889,133,0
3890,133,0
3891,129,0
3892,128,0
3893,124,0
3894,123,0
3895,121,0
3896,121,0
3897,116,0
3898,112,0
3899,109,0
3900,110,0
3901,111,0
3902,115,0
3903,116,0
3904,119,0
3905,121,0
3906,122,0
3907,126,0
3908,132,0
3909,132,0
3910,131,0
3911,127,0
3912,125,0
3913,122,0
3914,121,0
3915,119,0
3916,119,0
3917,114,0
3918,111,0
3919,108,0
3920,111,0
3921,113,0
3922,114,0
3923,111,0
3924,109,0
3925,106,0
3926,102,0
3927,101,0
3928,133,0
3929,188,0
3930,227,0
3932,256,0
3933,278,0
3934,295,0
3935,310,0
3936,322,0
3937,331,0
3938,333,0
3939,339,0
3940,306,0
3941,329,0
3942,341,0
3943,352,0
3944,360,0
3945,367,0
3946,372,0
3947,294,0
3948,342,0
3949,359,0
3950,367,0
3951,373,0
3952,375,0
3953,378,0
3954,379,0
3955,382,0
3956,383,0
3957,381,0
3958,377,0
3959,378,0
3960,354,0
3961,365,0
3962,373,0
3963,380,0
3964,383,0
3965,387,0
3966,343,0
3967,342,0
3968,362,0
3969,375,0
3970,379,0
3971,383,0
3972,384,0
3973,386,0
3975,386,0
3976,388,0
3977,389,0
3978,384,0
3979,381,0
3980,335,0
3981,329,0
3982,339,0
3983,355,0
3984,366,0
3985,373,0
3986,380,0
3987,315,0
3988,335,0
3989,355,0
3990,369,0
3991,374,0
3992,379,0
3993,381,0
3994,383,0
3995,384,0
3996,387,0
3997,385,0
3998,383,0
3999,364,0
4000,297,0
4001,317,0
4002,325,0
4003,344,0
4004,358,0
4005,367,0
4006,346,0
4007,320,0
4008,350,0
4009,364,0
4010,374,0
4011,378,0
4012,381,0
4013,383,0
4014,387,0
4015,348,0
4017,293,0
4018,251,0
4019,220,0
4020,200,0
4021,189,0
4022,182,0
4023,177,0
4024,172,0
4025,169,0
4026,164,0
4027,162,0
4028,162,0
4029,162,0
4030,159,0
4031,155,0
4032,149,0
4033,145,0
4034,140,0
4035,138,0
4036,135,0
4037,132,0
4038,126,0
4039,121,0
4040,119,0
4041,121,0
4042,122,0
4043,124,0
4044,125,0
4045,127,0
4046,127,0
4047,130,0
4048,135,0
4049,137,0
4050,136,0
4051,134,0
4052,130,0
4053,128,0
4054,125,0
4055,124,0
4056,122,0
4057,119,0
4058,113,0
4060,112,0
4061,111,0
4062,114,0
4063,115,0
4064,119,0
4065,120,0
4066,122,0
4067,121,0
4068,128,0
4069,131,0
4070,134,0
4071,131,0
4072,129,0
4073,126,0
4074,124,0
4075,121,0
4076,121,0
4077,119,0
4078,114,0
4079,109,0
4080,109,0
4081,110,0
4082,113,0
4083,116,0
4084,118,0
4085,120,0
4086,121,0
4087,122,0
4088,128,0
4089,130,0
4090,132,0
4091,129,0
4092,127,0
4093,123,0
4094,122,0
4095,119,0
4096,119,0
4097,116,0
4098,111,0
4099,107,0
4100,108,0
4101,110,0
4103,112,0
4104,114,0
4105,118,0
4106,118,0
4107,119,0
4108,122,0
4109,129,0
4110,130,0
4111,130,0
4112,128,0
4113,125,0
4114,122,0
4115,120,0
4116,119,0
4116,118,0
4117,113,0
4118,109,0
4119,106,0
4120,107,0
4121,110,0
4122,113,0
4123,114,0
4124,117,0
4125,117,0
4126,119,0
4127,124,0
4128,129,0
4129,129,0
4130,128,0
4131,125,0
4132,123,0
4133,120,0
4134,119,0
4135,118,0
4136,117,0
4137,111,0
4138,107,0
4139,106,0
4140,108,0
4141,111,0
4142,113,0
4143,115,0
4145,117,0
4146,118,0
4147,121,0
4148,126,0
4149,130,0
4150,130,0
4151,128,0
4152,125,0
4153,123,0
4154,119,0
4155,119,0
4156,117,0
4157,115,0
4158,109,0
4159,107,0
4160,107,0
4161,109,0
4162,111,0
4163,115,0
4164,116,0
4165,118,0
4166,118,0
4167,123,0
4168,128,0
4169,130,0
4170,128,0
4171,126,0
4172,123,0
4173,121,0
4174,119,0
4175,119,0
4176,118,0
4177,113,0
4178,108,0
4179,107,0
4180,108,0
4181,111,0
4182,114,0
4183,116,0
4184,117,0
4185,119,0
4186,120,0
4188,125,0
4189,129,0
4190,130,0
4191,128,0
4192,125,0
4193,122,0
4194,120,0
4195,119,0
4196,118,0
4197,117,0
4198,111,0
4199,107,0
4200,108,0
4201,110,0
4202,113,0
4203,114,0
4204,117,0
4205,118,0
4206,120,0
4207,121,0
4208,128,0
4209,129,0
4210,130,0
4211,128,0
4212,126,0
4213,123,0
4214,122,0
4215,120,0
4216,119,0
4217,116,0
4218,111,0
4219,108,0
4220,110,0
4221,111,0
4222,114,0
4223,115,0
4224,119,0
4225,120,0
4226,121,0
4227,125,0
4228,131,0
4229,131,0
4231,130,0
4232,128,0
4233,125,0
4234,122,0
4235,121,0
4236,118,0
4237,118,0
4238,113,0
4239,110,0
4240,107,0
4241,109,0
4242,112,0
4243,115,0
4244,116,0
4245,119,0
4246,119,0
4247,122,0
4248,127,0
4249,131,0
4250,131,0
4251,130,0
4252,126,0
4253,124,0
4254,121,0
4255,120,0
4256,118,0
4257,117,0
4258,111,0
4259,109,0
4260,108,0
4261,111,0
4262,113,0
4263,116,0
4264,117,0
4265,119,0
4266,121,0
4267,125,0
4268,129,0
4269,132,0
4270,130,0
4271,128,0
4273,125,0
4274,123,0
4275,121,0
4276,120,0
4277,118,0
4278,114,0
4279,109,0
4280,108,0
4281,108,0
4282,111,0
4283,114,0
4284,117,0
4285,119,0
4286,120,0
4287,121,0
4288,127,0
4289,130,0
4290,133,0
4291,130,0
4292,128,0
4293,124,0
4294,123,0
4295,120,0
4296,120,0
4297,118,0
4298,113,0
4299,109,0
4300,109,0
4301,109,0
4302,113,0
4303,115,0
4304,118,0
4305,119,0
4306,120,0
4307,123,0
4308,129,0
4309,131,0
4310,132,0
4311,129,0
4312,127,0
4313,123,0
4314,122,0
4316,120,0
4317,119,0
4318,116,0
4319,111,0
4320,108,0
4321,109,0
4322,111,0
4323,114,0
4324,116,0
4325,119,0
4326,120,0
4327,121,0
4328,124,0
4329,130,0
4330,131,0
4331,131,0
4332,128,0
4333,126,0
4334,123,0
4335,122,0
4336,120,0
4337,120,0
4338,115,0
4339,111,0
4340,108,0
4341,110,0
4342,112,0
4343,115,0
4344,116,0
4345,119,0
4346,120,0
4347,122,0
4348,127,0
4349,132,0
4350,132,0
4351,131,0
4352,128,0
4353,126,0
4354,122,0
4355,122,0
4356,120,0
4357,118,0
4359,113,0
4360,109,0
4361,108,0
4362,111,0
4363,112,0
4364,115,0
4365,117,0
4366,119,0
4367,121,0
4368,124,0
4369,128,0
4370,132,0
4371,131,0
4372,129,0
4373,127,0
4374,124,0
4375,122,0
4376,120,0
4377,119,0
4377,116,0
4378,111,0
4379,109,0
4380,108,0
4381,111,0
4382,114,0
4383,116,0
4384,118,0
4385,121,0
4386,121,0
4387,126,0
4388,130,0
4389,133,0
4390,131,0
4391,129,0
4392,125,0
4393,124,0
4394,120,0
4395,120,0
4396,118,0
4397,114,0
4398,109,0
4399,109,0
4401,109,0
4402,112,0
4403,115,0
4404,117,0
4405,120,0
4406,121,0
4407,123,0
4408,128,0
4409,131,0
4410,132,0
4411,129,0
4412,128,0
4413,124,0
4414,123,0
4415,121,0
4416,121,0
4417,118,0
4418,113,0
4419,109,0
4420,110,0
4421,111,0
4422,114,0
4423,117,0
4424,119,0
4425,120,0
4426,121,0
4427,124,0
4428,130,0
4429,132,0
4430,132,0
4431,129,0
4432,126,0
4433,123,0
4434,122,0
4435,121,0
4436,120,0
4437,116,0
4438,111,0
4439,107,0
4440,110,0
4441,111,0
4442,115,0
4444,117,0
4445,119,0
4446,119,0
4447,122,0
4448,126,0
4449,131,0
4450,132,0
4451,131,0
4452,129,0
4453,126,0
4454,123,0
4455,122,0
4456,119,0
4457,119,0
4458,113,0
4459,110,0
4460,108,0
4461,111,0
4462,113,0
4463,116,0
4464,118,0
4465,120,0
4466,121,0
4467,123,0
4468,128,0
4469,130,0
4470,128,0
4471,123,0
4472,118,0
4473,116,0
4474,114,0
4475,112,0
4476,110,0
4477,102,0
4478,89,0
4479,105,0
4480,103,0
4481,106,0
4482,111,0
4483,117,0
4484,120,0
4485,122,0
4487,123,0
4488,128,0
4489,133,0
4490,135,0
4491,133,0
4492,131,0
4493,128,0
4494,124,0
4495,117,0
4496,111,0
4497,106,0
4498,98,0
4499,91,0
4500,89,0
4501,89,0
4502,92,0
4503,96,0
4503,99,0
4504,102,0
4505,107,0
4506,109,0
4507,113,0
4508,120,0
4509,125,0
4510,125,0
4511,123,0
4512,122,0
4513,119,0
4514,117,0
4515,116,0
4516,114,0
4517,112,0
4518,106,0
4519,105,0
4520,104,0
4521,107,0
4522,108,0
4523,111,0
4524,112,0
4525,115,0
4526,114,0
4527,120,0
4529,125,0
4530,127,0
4531,124,0
4532,122,0
4533,119,0
4534,117,0
4535,115,0
4536,115,0
4537,113,0
4538,109,0
4539,105,0
4540,103,0
4541,104,0
4542,107,0
4543,108,0
4544,111,0
4545,112,0
4546,114,0
4547,115,0
4548,121,0
4549,125,0
4550,126,0
4551,123,0
4552,121,0
4553,118,0
4554,117,0
4555,114,0
4556,114,0
4557,111,0
4558,107,0
4559,104,0
4560,103,0
4561,104,0
4562,107,0
4563,109,0
4564,112,0
4565,112,0
4566,114,0
4567,117,0
4568,123,0
4569,125,0
4570,125,0
4572,122,0
4573,120,0
4574,117,0
4575,115,0
4576,113,0
4577,113,0
4578,109,0
4579,105,0
4580,102,0
4581,103,0
4582,105,0
4583,108,0
4584,110,0
4585,113,0
4586,113,0
4587,115,0
4588,120,0
4589,125,0
4590,125,0
4591,125,0
4592,122,0
4593,120,0
4594,117,0
4595,116,0
4596,114,0
4597,114,0
4598,108,0
4599,105,0
4600,103,0
4601,105,0
4602,107,0
4603,110,0
4604,112,0
4605,114,0
4606,114,0
4607,117,0
4608,122,0
4609,126,0
4610,126,0
4611,124,0
4612,121,0
4613,119,0
4615,116,0
4616,116,0
4617,114,0
4618,112,0
4619,106,0
4620,104,0
4621,104,0
4622,106,0
4623,108,0
4624,111,0
4625,112,0
4626,115,0
4627,115,0
4628,120,0
4629,125,0
4630,126,0
4631,125,0
4632,123,0
4633,120,0
4634,118,0
4635,115,0
4636,115,0
4637,114,0
4638,109,0
4639,104,0
4640,103,0
4641,103,0
4642,106,0
4643,109,0
4644,112,0
4645,113,0
4646,115,0
4647,115,0
4648,121,0
4649,125,0
4650,127,0
4651,124,0
4652,122,0
4653,119,0
4654,119,0
4655,118,0
4657,118,0
4658,116,0
4659,112,0
4660,109,0
4661,108,0
4662,110,0
4663,112,0
4664,115,0
4665,118,0
4666,119,0
4667,120,0
4668,122,0
4669,128,0
4670,130,0
4671,131,0
4672,129,0
4673,126,0
4674,122,0
4675,121,0
4676,119,0
4677,119,0
4678,116,0
4679,111,0
4680,108,0
4681,109,0
4682,111,0
4683,114,0
4684,116,0
4685,119,0
4686,121,0
4687,121,0
4688,126,0
4689,131,0
4690,132,0
4691,132,0
4692,129,0
4693,127,0
4694,123,0
4695,123,0
4696,121,0
4697,121,0
4698,116,0
4700,112,0
4701,109,0
4702,111,0
4703,113,0
4704,116,0
4705,119,0
4706,121,0
4707,122,0
4708,124,0
4709,129,0
4710,133,0
4711,134,0
4712,132,0
4713,129,0
4714,127,0
4715,124,0
4716,123,0
4717,121,0
4718,119,0
4719,115,0
4720,111,0
4721,111,0
4722,113,0
4723,115,0
4724,117,0
4725,120,0
4725,122,0
4726,122,0
4727,126,0
4728,131,0
4729,134,0
4730,133,0
4731,132,0
4732,128,0
4733,126,0
4734,124,0
4735,123,0
4736,121,0
4737,118,0
4738,114,0
4739,111,0
4740,112,0
4741,114,0
4743,116,0
4744,119,0
4745,121,0
4746,122,0
4747,123,0
4748,129,0
4749,133,0
4750,135,0
4751,132,0
4752,131,0
4753,127,0
4754,126,0
4755,123,0
4756,122,0
4757,121,0
4758,116,0
4759,111,0
4760,111,0
4761,112,0
4762,115,0
4763,117,0
4764,120,0
4765,121,0
4766,122,0
4767,124,0
4768,130,0
4769,133,0
4770,134,0
4771,130,0
4772,129,0
4773,127,0
4774,125,0
4775,122,0
4776,123,0
4777,119,0
4778,115,0
4779,111,0
4780,112,0
4781,113,0
4782,116,0
4783,119,0
4785,121,0
4786,121,0
4787,123,0
4788,126,0
4789,132,0
4790,135,0
4791,134,0
4792,130,0
4793,129,0
4794,125,0
4795,124,0
4796,122,0
4797,122,0
4798,117,0
4799,113,0
4800,111,0
4801,112,0
4802,113,0
4803,117,0
4804,119,0
4805,121,0
4806,122,0
4807,124,0
4808,129,0
4809,134,0
4810,135,0
4811,133,0
4812,129,0
4813,128,0
4814,125,0
4815,124,0
4816,121,0
4817,121,0
4818,116,0
4819,112,0
4820,110,0
4821,113,0
4822,114,0
4823,119,0
4824,120,0
4825,122,0
4826,122,0
4828,126,0
4829,131,0
4830,134,0
4831,134,0
4832,132,0
4833,129,0
4834,127,0
4835,124,0
4836,123,0
4837,121,0
4838,120,0
4839,114,0
4840,112,0
4841,111,0
4842,114,0
4843,116,0
4844,119,0
4845,121,0
4846,123,0
4847,123,0
4848,129,0
4849,133,0
4850,135,0
4851,133,0
4852,132,0
4853,128,0
4854,126,0
4855,124,0
4856,123,0
4857,122,0
4858,117,0
4859,113,0
4860,111,0
4861,112,0
4862,115,0
4863,117,0
4864,120,0
4865,121,0
4866,123,0
4867,124,0
4868,130,0
4869,133,0
4871,135,0
4872,132,0
4873,130,0
4874,126,0
4875,125,0
4876,123,0
4877,123,0
4878,120,0
4879,116,0
4880,111,0
4881,112,0
4882,113,0
4883,116,0
4884,118,0
4885,121,0
4886,121,0
4887,124,0
4888,126,0
4889,132,0
4890,135,0
4891,134,0
4892,131,0
4893,130,0
4894,126,0
4895,125,0
4896,123,0
4897,123,0
4898,118,0
4899,114,0
4900,110,0
4901,112,0
4902,114,0
4903,117,0
4904,120,0
4905,121,0
4906,122,0
4907,124,0
4908,128,0
4909,134,0
4910,134,0
4911,133,0
4913,130,0
4914,128,0
4915,126,0
4916,124,0
4917,122,0
4918,122,0
4919,115,0
4920,112,0
4921,110,0
4922,112,0
4923,114,0
4924,118,0
4925,119,0
4926,121,0
4927,122,0
4928,125,0
4929,129,0
4930,134,0
4931,134,0
4932,132,0
4933,128,0
4934,126,0
4935,124,0
4936,123,0
4937,121,0
4938,119,0
4939,113,0
4940,111,0
4941,111,0
4942,113,0
4943,115,0
4944,119,0
4945,120,0
4946,122,0
4947,122,0
4948,127,0
4949,131,0
4950,134,0
4951,133,0
4952,131,0
4953,128,0
4954,126,0
4956,123,0
4957,123,0
4958,120,0
4959,117,0
4960,113,0
4961,111,0
4962,110,0
4963,114,0
4964,116,0
4965,119,0
4966,120,0
4967,122,0
4968,122,0
4969,129,0
4970,131,0
4971,132,0
4972,128,0
4973,124,0
4974,119,0
4975,118,0
4976,116,0
4977,116,0
4978,114,0
4979,107,0
4980,98,0
4980,89,0
4981,81,0
4982,156,0
4983,203,0
4984,239,0
4985,267,0
4986,289,0
4987,252,0
4988,278,0
4989,305,0
4990,325,0
4991,336,0
4992,346,0
4993,351,0
4994,357,0
4995,361,0
4996,317,0
4997,275,0
4999,243,0
