timestamp_ms,emg_raw,lead_off
0,224,0
0,166,0
1,128,0
1,106,0
2,92,0
2,85,0
2,78,0
3,74,0
3,72,0
3,70,0
4,68,0
4,66,0
5,64,0
7,63,0
7,63,0
8,64,0
9,64,0
9,65,0
10,65,0
11,66,0
12,70,0
12,66,0
13,64,0
14,62,0
15,63,0
15,64,0
16,62,0
17,62,0
18,63,0
18,61,0
19,61,0
20,60,0
21,59,0
21,53,0
22,54,0
23,56,0
24,57,0
24,57,0
25,58,0
26,59,0
27,59,0
27,61,0
28,62,0
29,63,0
30,64,0
30,64,0
31,67,0
32,65,0
33,62,0
33,61,0
34,61,0
35,61,0
36,62,0
36,61,0
37,60,0
38,61,0
39,60,0
39,60,0
40,59,0
41,52,0
42,52,0
42,54,0
43,55,0
44,59,0
45,57,0
45,59,0
46,59,0
47,60,0
47,61,0
49,63,0
50,63,0
51,65,0
51,68,0
52,65,0
53,62,0
54,61,0
54,62,0
55,60,0
56,60,0
57,61,0
57,60,0
58,61,0
59,60,0
60,59,0
60,59,0
61,52,0
62,53,0
63,54,0
63,55,0
64,58,0
65,58,0
66,58,0
66,60,0
67,59,0
68,61,0
69,63,0
69,63,0
70,64,0
71,69,0
72,65,0
72,63,0
73,61,0
74,61,0
75,61,0
75,61,0
76,61,0
77,60,0
78,60,0
78,61,0
79,59,0
80,59,0
81,53,0
81,52,0
82,55,0
83,56,0
84,56,0
84,57,0
85,58,0
86,58,0
87,60,0
87,61,0
88,62,0
89,62,0
90,61,0
90,63,0
92,58,0
93,55,0
94,54,0
94,56,0
95,61,0
96,62,0
97,64,0
97,65,0
98,64,0
99,63,0
100,63,0
100,59,0
101,45,0
102,0,1
103,0,1
104,195,0
104,118,0
105,89,0
106,78,0
107,71,0
108,70,0
109,71,0
110,69,0
110,70,0
111,73,0
112,70,0
113,67,0
114,64,0
114,67,0
115,64,0
116,61,0
117,60,0
118,57,0
119,56,0
119,52,0
120,51,0
121,47,0
122,50,0
123,51,0
124,54,0
124,55,0
125,58,0
126,57,0
127,60,0
128,63,0
129,63,0
129,63,0
130,67,0
131,66,0
132,64,0
133,61,0
135,62,0
135,62,0
136,61,0
137,61,0
138,60,0
139,61,0
140,60,0
140,59,0
141,52,0
142,54,0
143,55,0
144,57,0
145,57,0
145,59,0
146,60,0
147,60,0
148,61,0
149,63,0
150,64,0
150,64,0
151,69,0
152,64,0
153,62,0
154,61,0
155,62,0
155,62,0
156,62,0
157,61,0
158,60,0
159,60,0
159,59,0
160,56,0
161,51,0
162,55,0
163,56,0
164,57,0
164,57,0
165,59,0
166,61,0
167,60,0
168,62,0
169,64,0
169,64,0
170,68,0
171,65,0
172,63,0
173,62,0
174,62,0
174,62,0
175,61,0
177,61,0
178,60,0
179,59,0
180,60,0
180,59,0
181,51,0
182,52,0
183,55,0
184,57,0
185,59,0
185,59,0
186,59,0
187,60,0
188,61,0
189,63,0
190,64,0
190,64,0
191,68,0
192,64,0
193,63,0
194,61,0
195,60,0
195,61,0
196,62,0
197,61,0
198,60,0
199,59,0
199,60,0
200,56,0
201,52,0
202,54,0
203,57,0
204,58,0
204,60,0
205,59,0
206,59,0
207,61,0
208,61,0
209,64,0
209,64,0
210,68,0
211,66,0
212,63,0
213,62,0
214,62,0
214,60,0
215,60,0
216,62,0
217,61,0
218,60,0
220,59,0
220,60,0
221,52,0
222,53,0
223,54,0
224,57,0
225,58,0
225,58,0
226,59,0
227,60,0
228,63,0
229,63,0
230,63,0
230,64,0
231,68,0
232,64,0
233,62,0
234,61,0
235,62,0
235,62,0
236,61,0
237,61,0
238,61,0
239,59,0
240,60,0
240,57,0
241,53,0
242,54,0
243,56,0
244,58,0
244,58,0
245,59,0
246,59,0
247,62,0
248,63,0
249,63,0
249,64,0
250,69,0
251,65,0
252,63,0
253,60,0
254,62,0
254,62,0
255,60,0
256,61,0
257,61,0
258,60,0
259,59,0
259,58,0
260,52,0
261,54,0
263,54,0
264,57,0
265,58,0
265,59,0
266,59,0
267,59,0
268,61,0
269,63,0
270,62,0
270,64,0
271,67,0
272,64,0
273,63,0
274,60,0
275,62,0
275,61,0
276,60,0
277,61,0
278,60,0
279,60,0
280,59,0
280,55,0
281,53,0
282,55,0
283,56,0
284,59,0
285,60,0
285,62,0
286,62,0
287,61,0
288,57,0
289,50,0
289,46,0
290,51,0
291,57,0
292,61,0
293,62,0
294,64,0
294,65,0
295,65,0
296,65,0
297,63,0
298,50,0
299,211,0
300,311,0
300,350,0
301,383,0
302,203,0
303,128,0
305,97,0
306,82,0
307,75,0
308,73,0
308,71,0
309,72,0
310,71,0
311,76,0
312,70,0
313,67,0
313,66,0
314,66,0
315,63,0
316,62,0
317,60,0
318,58,0
318,56,0
319,54,0
320,55,0
321,47,0
322,49,0
323,52,0
323,55,0
324,56,0
325,58,0
326,59,0
327,61,0
328,63,0
328,62,0
329,64,0
330,67,0
331,67,0
332,64,0
332,62,0
333,62,0
334,64,0
335,62,0
336,61,0
337,61,0
337,60,0
338,59,0
339,59,0
340,56,0
341,53,0
342,55,0
342,57,0
343,58,0
344,58,0
345,60,0
346,59,0
348,61,0
348,63,0
349,63,0
350,64,0
351,70,0
352,66,0
353,63,0
353,61,0
354,62,0
355,62,0
356,61,0
357,62,0
358,61,0
358,61,0
359,60,0
360,58,0
361,53,0
362,55,0
363,56,0
363,57,0
364,59,0
365,60,0
366,59,0
367,60,0
368,63,0
368,63,0
369,64,0
370,66,0
371,67,0
372,64,0
373,62,0
373,60,0
374,62,0
375,62,0
376,61,0
377,60,0
377,60,0
378,61,0
379,59,0
380,54,0
381,52,0
382,55,0
382,56,0
383,58,0
384,58,0
385,59,0
386,59,0
387,61,0
387,64,0
388,64,0
389,64,0
391,68,0
392,66,0
393,63,0
393,60,0
394,61,0
395,61,0
396,61,0
397,62,0
398,60,0
398,60,0
399,61,0
400,59,0
401,52,0
402,55,0
403,57,0
403,57,0
404,58,0
405,59,0
406,60,0
407,59,0
408,61,0
408,64,0
409,64,0
410,66,0
411,67,0
412,64,0
413,62,0
413,61,0
414,61,0
415,62,0
416,62,0
417,60,0
417,60,0
418,60,0
419,60,0
420,54,0
421,52,0
422,55,0
422,57,0
423,57,0
424,58,0
425,59,0
426,59,0
427,61,0
427,62,0
428,64,0
429,65,0
430,69,0
431,65,0
433,62,0
433,61,0
434,62,0
435,61,0
436,61,0
437,61,0
438,61,0
438,59,0
439,60,0
440,59,0
441,51,0
442,54,0
443,55,0
443,57,0
444,59,0
445,59,0
446,59,0
447,60,0
448,62,0
448,62,0
449,64,0
450,66,0
451,68,0
452,64,0
453,62,0
453,61,0
454,61,0
455,61,0
456,62,0
457,61,0
458,61,0
458,59,0
459,60,0
460,55,0
461,53,0
462,55,0
462,57,0
463,57,0
464,59,0
465,59,0
466,61,0
467,62,0
467,62,0
468,64,0
469,64,0
470,69,0
471,66,0
472,62,0
472,62,0
473,62,0
474,62,0
476,61,0
477,62,0
478,60,0
478,61,0
479,61,0
480,59,0
481,53,0
482,54,0
483,56,0
483,59,0
484,61,0
485,61,0
486,63,0
487,63,0
488,58,0
488,52,0
489,47,0
490,48,0
491,55,0
492,58,0
493,61,0
493,64,0
494,66,0
495,64,0
496,66,0
497,65,0
498,56,0
498,159,0
499,292,0
500,341,0
501,369,0
502,246,0
503,144,0
504,104,0
505,86,0
506,78,0
506,72,0
507,67,0
508,258,0
509,337,0
510,205,0
511,300,0
512,223,0
513,132,0
514,97,0
514,83,0
515,76,0
516,73,0
517,68,0
519,66,0
520,65,0
520,60,0
521,57,0
522,58,0
523,61,0
524,59,0
525,62,0
525,62,0
526,59,0
527,56,0
528,53,0
529,51,0
529,51,0
530,55,0
531,53,0
532,52,0
533,53,0
534,55,0
534,57,0
535,59,0
536,59,0
537,59,0
538,60,0
539,60,0
539,59,0
540,52,0
541,55,0
542,58,0
543,58,0
544,58,0
544,60,0
545,60,0
546,61,0
547,62,0
548,64,0
549,65,0
549,66,0
550,67,0
551,65,0
552,63,0
553,62,0
554,62,0
554,61,0
555,62,0
556,62,0
557,61,0
558,60,0
559,61,0
559,56,0
561,54,0
562,54,0
563,57,0
564,59,0
565,61,0
565,59,0
566,61,0
567,62,0
568,62,0
569,64,0
569,64,0
570,69,0
571,66,0
572,64,0
573,62,0
574,62,0
574,61,0
575,62,0
576,62,0
577,62,0
578,60,0
579,61,0
579,60,0
580,52,0
581,53,0
582,56,0
583,58,0
584,58,0
584,59,0
585,60,0
586,61,0
587,63,0
588,63,0
589,64,0
589,66,0
590,68,0
591,64,0
592,64,0
593,61,0
594,62,0
594,61,0
595,61,0
596,62,0
597,61,0
598,60,0
599,59,0
599,56,0
600,53,0
601,54,0
602,58,0
604,59,0
605,59,0
605,59,0
606,60,0
607,62,0
608,63,0
609,64,0
610,64,0
610,69,0
611,65,0
612,62,0
613,61,0
614,63,0
614,62,0
615,62,0
616,62,0
617,61,0
618,60,0
619,60,0
619,59,0
620,53,0
621,54,0
622,56,0
623,56,0
624,59,0
624,59,0
625,60,0
626,60,0
627,63,0
628,64,0
629,63,0
629,66,0
630,68,0
631,64,0
632,62,0
633,61,0
634,63,0
634,62,0
635,61,0
636,61,0
637,61,0
638,61,0
639,59,0
639,56,0
640,53,0
641,54,0
642,57,0
643,57,0
644,59,0
644,59,0
645,60,0
647,61,0
648,64,0
649,65,0
650,64,0
650,70,0
651,66,0
652,64,0
653,62,0
654,61,0
655,62,0
655,62,0
656,61,0
657,61,0
658,60,0
659,60,0
659,59,0
660,51,0
661,54,0
662,56,0
663,57,0
664,58,0
664,59,0
665,60,0
666,60,0
667,61,0
668,64,0
669,65,0
669,66,0
670,68,0
671,64,0
672,62,0
673,61,0
674,63,0
674,62,0
675,61,0
676,61,0
677,60,0
678,60,0
679,59,0
679,54,0
680,53,0
681,55,0
682,56,0
683,57,0
684,58,0
684,59,0
685,59,0
686,61,0
687,62,0
689,64,0
690,64,0
690,69,0
691,64,0
692,59,0
693,56,0
694,56,0
695,58,0
695,61,0
696,64,0
697,63,0
698,64,0
699,63,0
700,62,0
700,55,0
701,57,0
702,59,0
703,60,0
704,61,0
704,60,0
705,58,0
706,57,0
707,56,0
708,61,0
709,62,0
709,67,0
710,68,0
711,67,0
712,66,0
713,65,0
714,64,0
714,58,0
715,52,0
716,46,0
717,48,0
718,55,0
719,58,0
719,56,0
720,56,0
721,57,0
722,59,0
723,61,0
724,61,0
724,63,0
725,64,0
726,65,0
727,60,0
728,88,0
729,262,0
729,341,0
730,368,0
732,215,0
733,130,0
734,96,0
735,84,0
736,76,0
737,72,0
737,68,0
738,68,0
739,65,0
740,60,0
741,57,0
742,59,0
742,61,0
743,62,0
744,62,0
745,60,0
746,57,0
747,53,0
747,52,0
748,49,0
749,50,0
750,55,0
751,51,0
752,51,0
752,51,0
753,55,0
754,57,0
755,58,0
756,60,0
757,61,0
757,59,0
758,60,0
759,59,0
760,54,0
761,55,0
762,57,0
762,58,0
763,59,0
764,59,0
765,61,0
766,61,0
766,63,0
767,63,0
768,65,0
769,67,0
770,67,0
771,64,0
771,62,0
772,62,0
773,62,0
775,62,0
776,61,0
777,61,0
777,61,0
778,60,0
779,60,0
780,56,0
781,54,0
782,54,0
782,57,0
783,58,0
784,59,0
785,60,0
786,60,0
787,62,0
787,63,0
788,64,0
789,65,0
790,69,0
791,65,0
792,62,0
792,62,0
793,62,0
794,62,0
795,61,0
796,62,0
797,62,0
797,60,0
798,60,0
799,58,0
800,53,0
801,54,0
802,56,0
802,57,0
803,59,0
804,60,0
805,60,0
806,61,0
807,62,0
807,64,0
808,64,0
809,66,0
810,67,0
811,64,0
811,61,0
812,61,0
813,62,0
814,62,0
815,61,0
817,61,0
817,61,0
818,61,0
819,59,0
820,54,0
821,54,0
822,56,0
822,56,0
823,57,0
824,60,0
825,59,0
826,60,0
827,61,0
827,64,0
828,65,0
829,64,0
830,69,0
831,66,0
832,63,0
832,61,0
833,62,0
834,62,0
835,62,0
836,62,0
837,60,0
837,60,0
838,60,0
839,59,0
840,53,0
841,54,0
842,57,0
842,57,0
843,57,0
844,59,0
845,60,0
846,60,0
847,63,0
847,64,0
848,65,0
849,66,0
850,67,0
851,64,0
851,62,0
852,61,0
853,61,0
854,62,0
855,62,0
856,61,0
856,60,0
857,60,0
858,59,0
860,54,0
861,52,0
862,56,0
862,57,0
863,57,0
864,58,0
865,61,0
866,61,0
867,62,0
867,62,0
868,64,0
869,64,0
870,69,0
871,65,0
872,62,0
872,62,0
873,61,0
874,62,0
875,62,0
876,62,0
877,59,0
877,59,0
878,60,0
879,59,0
880,51,0
881,54,0
882,55,0
882,57,0
883,58,0
884,59,0
885,59,0
886,61,0
887,62,0
887,63,0
888,64,0
889,67,0
890,67,0
891,64,0
892,62,0
892,62,0
893,62,0
894,61,0
895,62,0
896,62,0
896,60,0
897,59,0
898,60,0
899,54,0
900,53,0
901,54,0
901,57,0
903,57,0
904,58,0
905,58,0
906,60,0
907,62,0
907,61,0
908,63,0
909,64,0
910,66,0
911,61,0
912,56,0
912,54,0
913,57,0
914,59,0
915,62,0
916,65,0
917,64,0
917,64,0
918,62,0
919,63,0
920,55,0
921,55,0
922,53,0
922,50,0
923,49,0
924,49,0
925,55,0
926,61,0
927,64,0
927,65,0
928,67,0
929,70,0
930,70,0
931,55,0
932,140,0
932,288,0
933,347,0
934,225,0
935,134,0
936,99,0
937,83,0
938,75,0
939,69,0
939,60,0
940,61,0
941,61,0
942,62,0
943,64,0
945,63,0
945,64,0
946,65,0
947,65,0
948,64,0
949,61,0
950,60,0
950,59,0
951,55,0
952,52,0
953,53,0
954,55,0
955,55,0
955,56,0
956,58,0
957,59,0
958,59,0
959,58,0
960,53,0
960,53,0
961,55,0
962,57,0
963,59,0
964,59,0
964,60,0
965,59,0
966,62,0
967,64,0
968,64,0
969,65,0
969,69,0
970,65,0
971,63,0
972,61,0
973,61,0
974,63,0
974,62,0
975,62,0
976,61,0
977,61,0
978,60,0
979,59,0
979,53,0
980,55,0
981,56,0
982,57,0
983,58,0
984,59,0
984,60,0
985,60,0
986,62,0
988,64,0
989,64,0
990,67,0
990,68,0
991,64,0
992,62,0
993,62,0
994,63,0
995,62,0
995,62,0
996,62,0
997,61,0
998,60,0
999,60,0
1000,54,0
1000,54,0
1001,56,0
1002,57,0
1003,57,0
1004,60,0
1005,59,0
1006,61,0
1007,62,0
1008,64,0
1009,64,0
1010,68,0
1010,64,0
1011,62,0
1012,61,0
1013,61,0
1014,60,0
1015,61,0
1016,61,0
1017,61,0
1018,60,0
1019,57,0
1020,54,0
1021,56,0
1021,55,0
1022,56,0
1023,59,0
1024,59,0
1025,60,0
1026,62,0
1027,63,0
1028,64,0
1029,68,0
1031,65,0
1032,63,0
1032,61,0
1033,62,0
1034,61,0
1035,62,0
1036,60,0
1037,59,0
1038,59,0
1039,61,0
1040,53,0
1041,55,0
1042,56,0
1043,58,0
1043,58,0
1044,58,0
1045,59,0
1046,62,0
1047,63,0
1048,64,0
1049,66,0
1050,67,0
1051,63,0
1052,61,0
1053,62,0
1053,62,0
1054,62,0
1055,62,0
1056,61,0
1057,60,0
1058,59,0
1059,53,0
1060,54,0
1061,56,0
1062,58,0
1063,58,0
1064,59,0
1064,60,0
1065,61,0
1066,63,0
1067,63,0
1068,64,0
1069,68,0
1070,64,0
1071,63,0
1073,61,0
1074,60,0
1075,60,0
1075,60,0
1076,61,0
1077,61,0
1078,60,0
1079,58,0
1080,54,0
1081,54,0
1082,57,0
1083,57,0
1084,59,0
1085,59,0
1086,61,0
1086,63,0
1087,64,0
1088,64,0
1089,67,0
1090,65,0
1091,63,0
1092,61,0
1093,63,0
1094,62,0
1095,62,0
1096,60,0
1096,60,0
1097,59,0
1098,59,0
1099,53,0
1100,54,0
1101,56,0
1102,58,0
1103,58,0
1104,58,0
1105,59,0
1106,62,0
1107,63,0
1107,65,0
1108,65,0
1109,66,0
1110,62,0
1111,61,0
1112,61,0
1113,62,0
1114,64,0
1116,64,0
1117,64,0
1118,62,0
1118,62,0
1119,56,0
1120,55,0
1121,57,0
1122,60,0
1123,61,0
1124,61,0
1125,61,0
1126,63,0
1127,64,0
1128,65,0
1129,68,0
1129,72,0
1130,68,0
1131,66,0
1132,65,0
1133,65,0
1134,64,0
1135,64,0
1136,64,0
1137,62,0
1138,62,0
1139,61,0
1139,54,0
1140,55,0
1141,58,0
1142,60,0
1143,62,0
1144,62,0
1145,63,0
1146,66,0
1147,66,0
1148,66,0
1149,70,0
1150,69,0
1150,67,0
1151,65,0
1152,65,0
1153,65,0
1154,63,0
1155,63,0
1156,62,0
1157,61,0
1159,62,0
1160,55,0
1161,57,0
1161,59,0
1162,60,0
1163,61,0
1164,62,0
1165,62,0
1166,65,0
1167,66,0
1168,67,0
1169,68,0
1170,71,0
1171,67,0
1172,65,0
1172,66,0
1173,66,0
1174,66,0
1175,65,0
1176,64,0
1177,63,0
1178,63,0
1179,58,0
1180,56,0
1181,58,0
1182,61,0
1182,61,0
1183,63,0
1184,62,0
1185,63,0
1186,65,0
1187,67,0
1188,68,0
1189,73,0
1190,68,0
1191,67,0
1192,66,0
1193,65,0
1193,65,0
1194,64,0
1195,65,0
1196,64,0
1197,64,0
1198,63,0
1199,56,0
1201,57,0
1202,59,0
1203,60,0
1204,61,0
1204,63,0
1205,64,0
1206,65,0
1207,67,0
1208,67,0
1209,70,0
1210,69,0
1211,67,0
1212,66,0
1213,66,0
1214,66,0
1215,66,0
1215,65,0
1216,64,0
1217,63,0
1218,63,0
1219,56,0
1220,58,0
1221,60,0
1222,61,0
1223,61,0
1224,63,0
1225,62,0
1225,65,0
1226,66,0
1227,68,0
1228,68,0
1229,72,0
1230,67,0
1231,65,0
1232,66,0
1233,65,0
1234,66,0
1235,65,0
1236,64,0
1236,63,0
1237,63,0
1238,60,0
1239,56,0
1240,58,0
1241,60,0
1242,61,0
1244,64,0
1245,64,0
1246,64,0
1247,65,0
1247,68,0
1248,68,0
1249,73,0
1250,69,0
1251,67,0
1252,64,0
1253,65,0
1254,65,0
1255,65,0
1256,65,0
1257,65,0
1258,64,0
1258,63,0
1259,55,0
1260,57,0
1261,59,0
1262,60,0
1263,63,0
1264,63,0
1265,64,0
1266,65,0
1267,67,0
1268,67,0
1268,70,0
1269,70,0
1270,67,0
1271,66,0
1272,66,0
1273,65,0
1274,66,0
1275,65,0
1276,64,0
1277,64,0
1278,63,0
1279,57,0
1279,57,0
1280,60,0
1281,61,0
1282,62,0
1283,62,0
1284,62,0
1285,65,0
1287,67,0
1288,68,0
1289,68,0
1290,72,0
1290,68,0
1291,66,0
1292,65,0
1293,67,0
1294,65,0
1295,65,0
1296,65,0
1297,64,0
1298,63,0
1299,59,0
1300,56,0
1301,59,0
1301,59,0
1302,62,0
1303,64,0
1304,63,0
1305,64,0
1306,65,0
1307,68,0
1308,69,0
1309,72,0
1310,70,0
1311,67,0
1311,66,0
1312,65,0
1313,65,0
1314,65,0
1315,64,0
1316,64,0
1317,64,0
1318,63,0
1319,56,0
1320,57,0
1321,59,0
1322,61,0
1322,63,0
1323,63,0
1324,65,0
1325,67,0
1326,67,0
1327,67,0
1329,70,0
1330,70,0
1331,68,0
1332,66,0
1333,67,0
1333,66,0
1334,65,0
1335,64,0
1336,64,0
1337,63,0
1338,64,0
1339,58,0
1340,57,0
1341,59,0
1342,60,0
1343,61,0
1344,61,0
1344,63,0
1345,66,0
1346,67,0
1347,68,0
1348,68,0
1349,72,0
1350,69,0
1351,66,0
1352,67,0
1353,67,0
1354,66,0
1354,66,0
1355,65,0
1356,64,0
1357,63,0
1358,61,0
1359,55,0
1360,58,0
1361,60,0
1362,62,0
1363,62,0
1364,63,0
1365,64,0
1365,66,0
1366,67,0
1367,68,0
1368,72,0
1369,70,0
1370,67,0
1372,66,0
1373,66,0
1374,65,0
1375,65,0
1376,64,0
1376,64,0
1377,64,0
1378,62,0
1379,56,0
1380,57,0
1381,59,0
1382,60,0
1383,63,0
1384,64,0
1385,64,0
1386,66,0
1387,66,0
1387,68,0
1388,69,0
1389,70,0
1390,68,0
1391,66,0
1392,67,0
1393,66,0
1394,65,0
1395,64,0
1396,64,0
1397,63,0
1397,64,0
1398,58,0
1399,57,0
1400,59,0
1401,61,0
1402,61,0
1403,62,0
1404,62,0
1405,65,0
1406,67,0
1407,68,0
1408,67,0
1408,71,0
1409,68,0
1410,65,0
1411,65,0
1412,65,0
1413,66,0
1415,65,0
1416,64,0
1417,64,0
1418,62,0
1419,61,0
1419,56,0
1420,58,0
1421,60,0
1422,61,0
1423,62,0
1424,63,0
1425,63,0
1426,65,0
1427,66,0
1428,67,0
1429,72,0
1430,70,0
1430,67,0
1431,66,0
1432,66,0
1433,64,0
1434,64,0
1435,64,0
1436,64,0
1437,63,0
1438,62,0
1439,54,0
1440,55,0
1440,59,0
1441,59,0
1442,61,0
1443,63,0
1444,64,0
1445,65,0
1446,66,0
1447,67,0
1448,67,0
1449,70,0
1450,68,0
1451,66,0
1451,66,0
1452,66,0
1453,64,0
1454,62,0
1455,60,0
1457,60,0
1458,62,0
1459,57,0
1460,56,0
1461,58,0
1462,59,0
1462,60,0
1463,61,0
1464,62,0
1465,64,0
1466,67,0
1467,68,0
1468,68,0
1469,72,0
1470,68,0
1471,65,0
1472,53,0
1473,135,0
1474,200,0
1475,113,0
1476,85,0
1476,75,0
1477,70,0
1478,64,0
1479,59,0
1480,60,0
1481,61,0
1482,62,0
1483,63,0
1484,62,0
1485,63,0
1486,62,0
1486,61,0
1487,58,0
1488,58,0
1489,53,0
1490,49,0
1491,48,0
1492,49,0
1493,50,0
1494,52,0
1495,53,0
1496,54,0
1497,55,0
1497,55,0
1498,47,0
1500,50,0
1501,52,0
1502,53,0
1503,56,0
1504,56,0
1505,56,0
1506,57,0
1507,59,0
1508,59,0
1508,62,0
1509,62,0
1510,59,0
1511,57,0
1512,57,0
1513,58,0
1514,57,0
1515,57,0
1516,57,0
1517,57,0
1518,57,0
1519,51,0
1519,51,0
1520,52,0
1521,54,0
1522,55,0
1523,55,0
1524,57,0
1525,59,0
1526,61,0
1527,62,0
1528,61,0
1529,64,0
1529,61,0
1530,58,0
1531,59,0
1532,60,0
1533,60,0
1534,59,0
1535,58,0
1536,57,0
1537,58,0
1538,54,0
1539,50,0
1540,53,0
1540,54,0
1541,56,0
1543,58,0
1544,56,0
1545,58,0
1546,59,0
1547,61,0
1548,61,0
1549,66,0
1550,62,0
1551,59,0
1551,57,0
1552,58,0
1553,58,0
1554,59,0
1555,58,0
1556,58,0
1557,57,0
1558,57,0
1559,49,0
1560,52,0
1561,54,0
1562,55,0
1562,56,0
1563,57,0
1564,58,0
1565,59,0
1566,61,0
1567,61,0
1568,63,0
1569,64,0
1570,62,0
1571,60,0
1572,60,0
1572,60,0
1573,58,0
1574,58,0
1575,58,0
1576,58,0
1577,58,0
1578,52,0
1579,52,0
1580,53,0
1581,54,0
1582,56,0
1583,56,0
1583,57,0
1585,59,0
1586,61,0
1587,62,0
1588,61,0
1589,66,0
1590,61,0
1591,60,0
1592,60,0
1593,61,0
1594,61,0
1594,59,0
1595,58,0
1596,58,0
1597,57,0
1598,55,0
1599,51,0
1600,53,0
1601,55,0
1602,55,0
1603,56,0
1604,57,0
1605,58,0
1605,59,0
1606,62,0
1607,62,0
1608,67,0
1609,64,0
1610,61,0
1611,58,0
1612,59,0
1613,58,0
1614,60,0
1615,59,0
1615,58,0
1616,58,0
1617,58,0
1618,50,0
1619,52,0
1620,53,0
1621,57,0
1622,57,0
1623,59,0
1624,58,0
1625,60,0
1626,61,0
1626,62,0
1628,63,0
1629,66,0
1630,62,0
1631,61,0
1632,60,0
1633,61,0
1634,60,0
1635,59,0
1636,59,0
1637,59,0
1637,59,0
1638,52,0
1639,53,0
1640,55,0
1641,57,0
1642,59,0
1643,60,0
1644,61,0
1645,59,0
1646,53,0
1647,46,0
1648,43,0
1648,53,0
1649,59,0
1650,61,0
1651,63,0
1652,64,0
1653,65,0
1654,65,0
1655,64,0
1656,46,0
1657,240,0
1658,328,0
1659,360,0
1660,393,0
1661,183,0
1662,117,0
1663,89,0
1664,79,0
1664,75,0
1665,72,0
1666,72,0
1667,71,0
1668,74,0
1669,69,0
1671,67,0
1672,65,0
1673,65,0
1674,62,0
1675,59,0
1676,56,0
1676,54,0
1677,53,0
1678,49,0
1679,47,0
1680,50,0
1681,53,0
1682,54,0
1683,56,0
1684,58,0
1685,59,0
1686,60,0
1686,62,0
1687,63,0
1688,68,0
1689,65,0
1690,61,0
1691,61,0
1692,60,0
1693,60,0
1694,61,0
1695,60,0
1696,60,0
1697,59,0
1697,59,0
1698,51,0
1699,53,0
1700,55,0
1701,57,0
1702,58,0
1703,59,0
1704,60,0
1705,61,0
1706,62,0
1707,63,0
1707,65,0
1708,65,0
1709,62,0
1710,61,0
1711,62,0
1713,60,0
1714,61,0
1715,59,0
1716,59,0
1717,58,0
1718,59,0
1719,53,0
1719,53,0
1720,54,0
1721,55,0
1722,57,0
1723,58,0
1724,59,0
1725,60,0
1726,62,0
1727,63,0
1728,64,0
1729,67,0
1729,62,0
1730,60,0
1731,60,0
1732,60,0
1733,60,0
1734,61,0
1735,60,0
1736,60,0
1737,58,0
1738,55,0
1739,51,0
1740,55,0
1740,56,0
1741,57,0
1742,58,0
1743,59,0
1744,59,0
1745,61,0
1746,62,0
1747,64,0
1748,68,0
1749,64,0
1750,62,0
1750,60,0
1751,60,0
1752,60,0
1753,60,0
1754,60,0
1756,60,0
1757,60,0
1758,59,0
1759,52,0
1760,53,0
1761,55,0
1762,57,0
1762,58,0
1763,59,0
1764,59,0
1765,62,0
1766,63,0
1767,62,0
1768,64,0
1769,66,0
1770,63,0
1771,61,0
1772,62,0
1772,61,0
1773,62,0
1774,60,0
1775,60,0
1776,60,0
1777,59,0
1778,54,0
1779,53,0
1780,56,0
1781,56,0
1782,57,0
1783,60,0
1783,59,0
1784,60,0
1785,62,0
1786,63,0
1787,64,0
1788,67,0
1789,63,0
1790,61,0
1791,60,0
1792,61,0
1793,61,0
1793,61,0
1794,59,0
1795,60,0
1796,59,0
1797,57,0
1799,52,0
1800,55,0
1801,56,0
1802,57,0
1803,58,0
1804,59,0
1805,59,0
1805,62,0
1806,64,0
1807,64,0
1808,67,0
1809,65,0
1810,63,0
1811,61,0
1812,61,0
1813,61,0
1814,61,0
1815,60,0
1815,60,0
1816,60,0
1817,59,0
1818,52,0
1819,53,0
1820,55,0
1821,57,0
1822,58,0
1823,58,0
1824,60,0
1825,61,0
1826,63,0
1826,64,0
1827,65,0
1828,67,0
1829,63,0
1830,62,0
1831,62,0
1832,61,0
1833,61,0
1834,61,0
1835,61,0
1836,60,0
1836,60,0
1837,55,0
1838,55,0
1839,57,0
1841,60,0
1842,61,0
1843,62,0
1844,61,0
1845,62,0
1846,60,0
1847,55,0
1848,50,0
1848,55,0
1849,58,0
1850,62,0
1851,64,0
1852,66,0
1853,65,0
1854,65,0
1855,65,0
1856,64,0
1857,59,0
1858,45,0
1858,242,0
1859,344,0
1860,175,0
1861,109,0
1862,85,0
1863,76,0
1864,72,0
1865,71,0
1866,72,0
1867,70,0
1868,55,0
1869,237,0
1870,330,0
1871,368,0
1872,378,0
1873,285,0
1874,152,0
1875,104,0
1876,85,0
1877,77,0
1878,64,0
1879,64,0
1879,62,0
1880,64,0
1881,64,0
1882,64,0
1884,64,0
1885,66,0
1886,68,0
1887,69,0
1888,66,0
1889,63,0
1890,54,0
1891,49,0
1891,47,0
1892,47,0
1893,48,0
1894,51,0
1895,52,0
1896,55,0
1897,56,0
1898,53,0
1899,52,0
1900,55,0
1901,57,0
1901,58,0
1902,59,0
1903,60,0
1904,62,0
1905,63,0
1906,64,0
1907,64,0
1908,70,0
1909,65,0
1910,63,0
1911,61,0
1912,62,0
1912,62,0
1913,62,0
1914,62,0
1915,62,0
1916,60,0
1917,60,0
1918,52,0
1919,55,0
1920,57,0
1921,58,0
1922,59,0
1922,60,0
1923,60,0
1924,62,0
1925,64,0
1927,64,0
1928,67,0
1929,66,0
1930,64,0
1931,62,0
1932,63,0
1933,64,0
1934,61,0
1934,61,0
1935,61,0
1936,60,0
1937,60,0
1938,52,0
1939,54,0
1940,56,0
1941,57,0
1942,58,0
1943,59,0
1944,60,0
1944,61,0
1945,63,0
1946,64,0
1947,64,0
1948,67,0
1949,64,0
1950,62,0
1951,62,0
1952,61,0
1953,62,0
1954,61,0
1955,61,0
1955,60,0
1956,60,0
1957,56,0
1958,53,0
1959,55,0
1960,57,0
1961,59,0
1962,60,0
1963,60,0
1964,61,0
1965,62,0
1965,64,0
1966,64,0
1967,69,0
1969,65,0
1970,62,0
1971,61,0
1972,62,0
1973,62,0
1974,61,0
1975,61,0
1976,60,0
1977,60,0
1977,59,0
1978,52,0
1979,55,0
1980,57,0
1981,57,0
1982,60,0
1983,60,0
1984,60,0
1985,62,0
1986,64,0
1987,64,0
1987,67,0
1988,66,0
1989,63,0
1990,61,0
1991,62,0
1992,62,0
1993,61,0
1994,61,0
1995,61,0
1996,60,0
1997,59,0
1998,53,0
1998,53,0
1999,56,0
2000,57,0
2001,59,0
2002,59,0
2003,60,0
2004,62,0
2005,63,0
2006,64,0
2007,64,0
2008,67,0
2008,64,0
2009,62,0
2010,61,0
2012,62,0
2013,61,0
2014,60,0
2015,60,0
2016,60,0
2017,60,0
2018,56,0
2019,53,0
2020,56,0
2020,57,0
2021,58,0
2022,58,0
2023,59,0
2024,61,0
2025,62,0
2026,64,0
2027,64,0
2028,68,0
2029,65,0
2030,62,0
2030,60,0
2031,63,0
2032,62,0
2033,62,0
2034,61,0
2035,60,0
2036,59,0
2037,59,0
2038,52,0
2039,54,0
2040,56,0
2041,58,0
2041,58,0
2042,59,0
2043,59,0
2044,61,0
2045,62,0
2046,64,0
2047,66,0
2048,67,0
2049,63,0
2050,59,0
2051,59,0
2051,58,0
2052,60,0
2053,63,0
2055,64,0
2056,62,0
2057,62,0
2058,56,0
2059,56,0
2060,58,0
2061,59,0
2062,61,0
2063,61,0
2063,62,0
2064,64,0
2065,66,0
2066,67,0
2067,66,0
2068,70,0
2069,67,0
2070,64,0
2071,60,0
2072,60,0
2073,61,0
2073,62,0
2074,62,0
2075,61,0
2076,62,0
2077,60,0
2078,55,0
2079,56,0
2080,58,0
2081,59,0
2082,61,0
2083,62,0
2084,63,0
2084,65,0
2085,66,0
2086,67,0
2087,70,0
2088,68,0
2089,66,0
2090,64,0
2091,65,0
2092,65,0
2093,64,0
2094,64,0
2094,62,0
2095,62,0
2097,61,0
2098,53,0
2099,56,0
2100,58,0
2101,61,0
2102,62,0
2103,63,0
2104,63,0
2105,65,0
2106,66,0
2106,68,0
2107,70,0
2108,71,0
2109,68,0
2110,65,0
2111,65,0
2112,65,0
2113,64,0
2114,65,0
2115,64,0
2116,64,0
2116,63,0
2117,57,0
2118,57,0
2119,57,0
2120,59,0
2121,61,0
2122,62,0
2123,64,0
2124,65,0
2125,67,0
2126,67,0
2127,67,0
2127,72,0
2128,69,0
2129,66,0
2130,65,0
2131,66,0
2132,64,0
2133,64,0
2134,64,0
2135,64,0
2136,64,0
2137,62,0
2137,56,0
2138,59,0
2140,59,0
2141,60,0
2142,62,0
2143,63,0
2144,64,0
2145,67,0
2146,68,0
2147,69,0
2148,71,0
2149,68,0
2149,67,0
2150,65,0
2151,66,0
2152,66,0
2153,64,0
2154,65,0
2155,64,0
2156,64,0
2157,62,0
2158,56,0
2159,57,0
2159,59,0
2160,61,0
2161,64,0
2162,63,0
2163,63,0
2164,65,0
2165,67,0
2166,68,0
2167,68,0
2168,73,0
2169,68,0
2170,66,0
2170,65,0
2171,65,0
2172,65,0
2173,66,0
2174,64,0
2175,64,0
2176,63,0
2177,58,0
2178,56,0
2179,58,0
2180,60,0
2180,61,0
2181,62,0
2183,64,0
2184,64,0
2185,66,0
2186,67,0
2187,68,0
2188,73,0
2189,69,0
2190,66,0
2191,67,0
2192,67,0
2192,67,0
2193,65,0
2194,64,0
2195,63,0
2196,64,0
2197,63,0
2198,58,0
2199,58,0
2200,59,0
2201,61,0
2202,61,0
2202,62,0
2203,64,0
2204,66,0
2205,67,0
2206,68,0
2207,70,0
2208,69,0
2209,67,0
2210,64,0
2211,65,0
2212,65,0
2213,65,0
2213,65,0
2214,64,0
2215,63,0
2216,63,0
2217,56,0
2218,58,0
2219,59,0
2220,61,0
2221,63,0
2222,63,0
2223,64,0
2223,65,0
2225,67,0
2226,68,0
2227,69,0
2228,72,0
2229,69,0
2230,66,0
2231,65,0
2232,65,0
2233,64,0
2234,66,0
2235,65,0
2235,65,0
2236,64,0
2237,60,0
2238,57,0
2239,58,0
2240,59,0
2241,61,0
2242,64,0
2243,64,0
2244,65,0
2245,66,0
2245,68,0
2246,68,0
2247,72,0
2248,69,0
2249,68,0
2250,65,0
2251,67,0
2252,66,0
2253,65,0
2254,64,0
2255,64,0
2256,64,0
2256,62,0
2257,56,0
2258,58,0
2259,60,0
2260,60,0
2261,62,0
2262,62,0
2263,64,0
2264,66,0
2265,68,0
2266,68,0
2266,72,0
2268,70,0
2269,67,0
2270,66,0
2271,67,0
2272,66,0
2273,66,0
2274,65,0
2275,64,0
2276,63,0
2277,62,0
2278,56,0
2278,58,0
2279,60,0
2280,61,0
2281,62,0
2282,64,0
2283,63,0
2284,65,0
2285,66,0
2286,68,0
2287,69,0
2288,72,0
2288,69,0
2289,66,0
2290,65,0
2291,65,0
2292,65,0
2293,65,0
2294,66,0
2295,64,0
2296,64,0
2297,60,0
2298,56,0
2299,58,0
2299,60,0
2300,63,0
2301,63,0
2302,63,0
2303,64,0
2304,66,0
2305,68,0
2306,68,0
2307,72,0
2308,69,0
2309,67,0
2309,65,0
2311,66,0
2312,66,0
2313,66,0
2314,65,0
2315,64,0
2316,64,0
2317,63,0
2318,57,0
2319,58,0
2320,60,0
2321,61,0
2321,62,0
2322,64,0
2323,64,0
2324,66,0
2325,68,0
2326,69,0
2327,70,0
2328,70,0
2329,68,0
2330,66,0
2331,66,0
2331,66,0
2332,66,0
2333,65,0
2334,65,0
2335,63,0
2336,62,0
2337,56,0
2338,57,0
2339,60,0
2340,61,0
2341,61,0
2342,62,0
2342,63,0
2343,64,0
2344,66,0
2345,68,0
2346,68,0
2347,73,0
2348,69,0
2349,66,0
2350,64,0
2351,65,0
2353,64,0
2354,65,0
2354,64,0
2355,64,0
2356,63,0
2357,61,0
2358,57,0
2359,57,0
2360,60,0
2361,61,0
2362,63,0
2363,63,0
2364,64,0
2364,66,0
2365,68,0
2366,67,0
2367,71,0
2368,69,0
2369,67,0
2370,65,0
2371,66,0
2372,65,0
2373,64,0
2374,63,0
2375,64,0
2375,63,0
2376,62,0
2377,55,0
2378,57,0
2379,59,0
2380,61,0
2381,61,0
2382,62,0
2383,64,0
2384,65,0
2385,67,0
2385,68,0
2386,69,0
2387,70,0
2388,67,0
2389,66,0
2390,67,0
2391,66,0
2392,66,0
2393,65,0
2394,65,0
2396,63,0
2397,63,0
2397,56,0
2398,57,0
2399,58,0
2400,59,0
2401,61,0
2402,62,0
2403,61,0
2404,63,0
2405,65,0
2406,67,0
2407,68,0
2407,72,0
2408,68,0
2409,66,0
2410,64,0
2411,65,0
2412,64,0
2413,61,0
2414,59,0
2415,60,0
2416,62,0
2417,60,0
2418,56,0
2418,56,0
2419,58,0
2420,61,0
2421,61,0
2422,62,0
2423,64,0
2424,65,0
2425,67,0
2426,67,0
2427,71,0
2428,69,0
2428,55,0
2429,163,0
2430,305,0
2431,207,0
2432,122,0
2433,91,0
2434,79,0
2435,72,0
2436,68,0
2437,60,0
2439,61,0
2440,62,0
2441,63,0
2442,63,0
2443,64,0
2443,64,0
2444,61,0
2445,58,0
2446,54,0
2447,55,0
2448,50,0
2449,47,0
2450,47,0
2451,48,0
2452,50,0
2453,50,0
2454,52,0
2454,53,0
2455,54,0
2456,54,0
2457,48,0
2458,50,0
2459,52,0
2460,53,0
2461,55,0
2462,56,0
2463,56,0
2464,58,0
2464,60,0
2465,60,0
2466,61,0
2467,63,0
2468,59,0
2469,58,0
2470,58,0
2471,58,0
2472,59,0
2473,58,0
2474,58,0
2475,57,0
2475,56,0
2476,52,0
2477,51,0
2478,53,0
2479,55,0
2481,56,0
2482,56,0
2483,56,0
2484,58,0
2485,60,0
2486,62,0
2486,62,0
2487,66,0
2488,62,0
2489,59,0
2490,59,0
2491,59,0
2492,59,0
2493,59,0
2494,59,0
2495,58,0
2496,57,0
2497,56,0
2497,50,0
2498,52,0
2499,54,0
2500,56,0
2501,56,0
2502,58,0
2503,58,0
2504,59,0
2505,61,0
2506,61,0
2507,66,0
2507,64,0
2508,61,0
2509,59,0
2510,61,0
2511,59,0
2512,59,0
2513,58,0
2514,58,0
2515,58,0
2516,58,0
2517,50,0
2518,52,0
2518,53,0
2519,55,0
2520,56,0
2521,57,0
2522,58,0
2524,59,0
2525,61,0
2526,62,0
2527,61,0
2528,66,0
2529,61,0
2529,60,0
2530,60,0
2531,59,0
2532,60,0
2533,59,0
2534,59,0
2535,58,0
2536,57,0
2537,53,0
2538,51,0
2539,53,0
2540,56,0
2540,57,0
2541,56,0
2542,56,0
2543,58,0
2544,60,0
2545,62,0
2546,62,0
2547,68,0
2548,63,0
2549,60,0
2550,58,0
2550,60,0
2551,60,0
2552,60,0
2553,59,0
2554,59,0
2555,58,0
2556,57,0
2557,51,0
2558,52,0
2559,54,0
2560,56,0
2561,58,0
2561,58,0
2562,57,0
2563,59,0
2564,61,0
2565,61,0
2567,65,0
2568,65,0
2569,62,0
2570,60,0
2571,59,0
2572,59,0
2572,60,0
2573,59,0
2574,59,0
2575,59,0
2576,58,0
2577,51,0
2578,52,0
2579,54,0
2580,56,0
2581,56,0
2582,57,0
2583,59,0
2583,62,0
2584,61,0
2585,62,0
2586,63,0
2587,66,0
2588,63,0
2589,60,0
2590,61,0
2591,60,0
2592,60,0
2593,59,0
2593,60,0
2594,58,0
2595,58,0
2596,56,0
2597,54,0
2598,57,0
2599,59,0
2600,59,0
2601,62,0
2602,61,0
2603,59,0
2604,55,0
2604,50,0
2605,47,0
2606,57,0
2607,60,0
2609,63,0
2610,63,0
2611,64,0
2612,64,0
2613,65,0
2614,65,0
2615,58,0
2615,140,0
2616,293,0
2617,346,0
2618,240,0
2619,134,0
2620,96,0
2621,82,0
2622,74,0
2623,70,0
2624,71,0
2625,70,0
2626,69,0
2627,74,0
2628,70,0
2629,67,0
2630,66,0
2631,64,0
2631,60,0
2632,55,0
2633,52,0
2634,50,0
2635,50,0
2636,50,0
2637,46,0
2638,48,0
2639,51,0
2640,53,0
2641,54,0
2641,56,0
2642,58,0
2643,60,0
2644,63,0
2645,63,0
2646,66,0
2647,64,0
2648,62,0
2649,60,0
2650,62,0
2652,62,0
2653,60,0
2653,61,0
2654,60,0
2655,59,0
2656,59,0
2657,51,0
2658,53,0
2659,55,0
2660,57,0
2661,58,0
2662,58,0
2663,58,0
2663,60,0
2664,61,0
2665,63,0
2666,64,0
2667,67,0
2668,64,0
2669,62,0
2670,60,0
2671,60,0
2672,59,0
2673,61,0
2674,61,0
2674,60,0
2675,59,0
2676,55,0
2677,52,0
2678,54,0
2679,54,0
2680,57,0
2681,58,0
2682,60,0
2683,61,0
2684,61,0
2684,63,0
2685,62,0
2686,67,0
2687,64,0
2688,62,0
2689,61,0
2690,61,0
2691,61,0
2692,60,0
2693,60,0
2695,59,0
2696,59,0
2696,59,0
2697,52,0
2698,55,0
2699,56,0
2700,57,0
2701,57,0
2702,57,0
2703,59,0
2704,61,0
2705,63,0
2706,63,0
2706,66,0
2707,65,0
2708,62,0
2709,60,0
2710,61,0
2711,61,0
2712,61,0
2713,60,0
2714,60,0
2715,59,0
2716,58,0
2717,52,0
2717,52,0
2718,56,0
2719,56,0
2720,58,0
2721,59,0
2722,59,0
2723,60,0
2724,61,0
2725,63,0
2726,63,0
2727,67,0
2727,63,0
2728,60,0
2729,60,0
2730,60,0
2731,60,0
2732,61,0
2733,60,0
2734,60,0
2735,60,0
2737,56,0
2738,52,0
2739,53,0
2739,55,0
2740,57,0
2741,59,0
2742,59,0
2743,60,0
2744,61,0
2745,62,0
2746,63,0
2747,68,0
2748,65,0
2749,62,0
2749,60,0
2750,61,0
2751,61,0
2752,60,0
2753,60,0
2754,59,0
2755,59,0
2756,58,0
2757,52,0
2758,55,0
2759,55,0
2760,56,0
2760,57,0
2761,58,0
2762,59,0
2763,61,0
2764,63,0
2765,63,0
2766,65,0
2767,65,0
2768,62,0
2769,60,0
2770,61,0
2770,61,0
2771,61,0
2772,61,0
2773,60,0
2774,58,0
2775,58,0
2776,53,0
2777,53,0
2778,55,0
2780,57,0
2781,59,0
2782,59,0
2782,58,0
2783,59,0
2784,62,0
2785,63,0
2786,65,0
2787,68,0
2788,64,0
2789,61,0
2790,61,0
2791,61,0
2792,60,0
2792,62,0
2793,60,0
2794,61,0
2795,61,0
2796,59,0
2797,53,0
2798,57,0
2799,58,0
2800,60,0
2801,61,0
2802,62,0
2803,63,0
2803,64,0
2804,61,0
2805,57,0
2806,58,0
2807,57,0
2808,60,0
2809,63,0
2810,66,0
2811,65,0
2812,65,0
2813,64,0
2813,64,0
2814,63,0
2815,62,0
2816,56,0
2817,57,0
2818,59,0
2819,60,0
2820,60,0
2821,61,0
2823,62,0
2824,65,0
2825,66,0
2825,67,0
2826,68,0
2827,70,0
2828,67,0
2829,65,0
2830,65,0
2831,66,0
2832,65,0
2833,64,0
2834,63,0
2835,62,0
2835,61,0
2836,56,0
2837,55,0
2838,56,0
2839,59,0
2840,61,0
2841,62,0
2842,63,0
2843,65,0
2844,66,0
2845,66,0
2846,67,0
2846,72,0
2847,68,0
2848,65,0
2849,64,0
2850,65,0
2851,65,0
2852,66,0
2853,64,0
2854,64,0
2855,63,0
2856,62,0
2856,56,0
2857,58,0
2858,60,0
2859,60,0
2860,62,0
2861,63,0
2862,64,0
2863,65,0
2865,67,0
2866,67,0
2867,71,0
2868,69,0
2868,67,0
2869,65,0
2870,66,0
2871,65,0
2872,65,0
2873,65,0
2874,64,0
2875,64,0
2876,63,0
2877,55,0
2878,57,0
2878,59,0
2879,62,0
2880,62,0
2881,62,0
2882,63,0
2883,66,0
2884,66,0
2885,67,0
2886,68,0
2887,72,0
2888,67,0
2889,66,0
2889,66,0
2890,66,0
2891,65,0
2892,64,0
2893,64,0
2894,64,0
2895,63,0
2896,59,0
2897,57,0
2898,58,0
2899,60,0
2899,62,0
2900,62,0
2901,63,0
2902,64,0
2903,67,0
2904,68,0
2905,69,0
2906,72,0
2908,68,0
2909,66,0
2910,66,0
2911,66,0
2911,66,0
2912,66,0
2913,65,0
2914,64,0
2915,64,0
2916,63,0
2917,57,0
2918,59,0
2919,61,0
2920,61,0
2921,62,0
2921,63,0
2922,64,0
2923,65,0
2924,68,0
2925,68,0
2926,71,0
2927,70,0
2928,68,0
2929,66,0
2930,67,0
2931,66,0
2932,65,0
2932,65,0
2933,64,0
2934,64,0
2935,64,0
2936,55,0
2937,58,0
2938,59,0
2939,61,0
2940,63,0
2941,63,0
2942,64,0
2942,65,0
2943,66,0
2944,69,0
2945,69,0
2946,71,0
2947,68,0
2948,66,0
2949,67,0
2951,65,0
2952,66,0
2953,68,0
2954,65,0
2954,65,0
2955,64,0
2956,60,0
2957,56,0
2958,59,0
2959,61,0
2960,62,0
2961,62,0
2962,64,0
2963,64,0
2964,66,0
2964,68,0
2965,68,0
2966,73,0
2967,71,0
2968,67,0
2969,66,0
2970,66,0
2971,66,0
2972,66,0
2973,65,0
2974,64,0
2975,64,0
2975,63,0
2976,56,0
2977,58,0
2978,60,0
2979,61,0
2980,62,0
2981,64,0
2982,64,0
2983,65,0
2984,67,0
2985,68,0
2985,71,0
2986,70,0
2987,68,0
2988,65,0
2989,67,0
2990,66,0
2991,66,0
2993,66,0
2994,64,0
2995,64,0
2996,64,0
2997,56,0
2997,58,0
2998,60,0
2999,60,0
3000,63,0
3001,62,0
3002,64,0
3003,65,0
3004,67,0
3005,68,0
3006,68,0
3007,71,0
3007,69,0
3008,65,0
3009,66,0
3010,66,0
3011,65,0
3012,65,0
3013,65,0
3014,63,0
3015,63,0
3016,60,0
3017,56,0
3018,59,0
3018,60,0
3019,62,0
3020,61,0
3021,62,0
3022,64,0
3023,66,0
3024,68,0
3025,68,0
3026,73,0
3027,70,0
3028,66,0
3028,65,0
3029,66,0
3030,65,0
3031,65,0
3032,65,0
3033,64,0
3034,64,0
3036,62,0
3037,56,0
3038,57,0
3039,59,0
3040,61,0
3040,63,0
3041,62,0
3042,64,0
3043,65,0
3044,66,0
3045,67,0
3046,70,0
3047,71,0
3048,68,0
3049,66,0
3050,66,0
3050,66,0
3051,64,0
3052,64,0
3053,64,0
3054,64,0
3055,64,0
3056,58,0
3057,57,0
3058,59,0
3059,60,0
3060,61,0
3061,62,0
3061,64,0
3062,64,0
3063,67,0
3064,68,0
3065,69,0
3066,72,0
3067,68,0
3068,66,0
3069,65,0
3070,67,0
3071,67,0
3071,66,0
3072,64,0
3073,64,0
3074,64,0
3075,60,0
3076,56,0
3077,58,0
3079,60,0
3080,61,0
3081,62,0
3082,62,0
3083,64,0
3083,66,0
3084,67,0
3085,68,0
3086,73,0
3087,69,0
3088,67,0
3089,65,0
3090,66,0
3091,65,0
3092,65,0
3093,65,0
3093,64,0
3094,64,0
3095,64,0
3096,55,0
3097,58,0
3098,59,0
3099,61,0
3100,64,0
3101,62,0
3102,64,0
3103,66,0
3104,66,0
3104,67,0
3105,68,0
3106,71,0
3107,67,0
3108,66,0
3109,65,0
3110,64,0
3111,64,0
3112,64,0
3113,64,0
3114,64,0
3114,63,0
3115,58,0
3116,57,0
3117,58,0
3118,59,0
3119,61,0
3121,63,0
3122,63,0
3123,65,0
3124,66,0
3125,67,0
3126,68,0
3126,71,0
3127,68,0
3128,65,0
3129,65,0
3130,66,0
3131,65,0
3132,64,0
3133,64,0
3134,63,0
3135,62,0
3136,62,0
3137,56,0
3137,58,0
3138,59,0
3139,61,0
3140,61,0
3141,62,0
3142,63,0
3143,64,0
3144,67,0
3145,68,0
3146,72,0
3147,70,0
3147,67,0
3148,65,0
3149,65,0
3150,65,0
3151,66,0
3152,65,0
3153,64,0
3154,63,0
3155,62,0
3156,55,0
3157,56,0
3158,58,0
3158,60,0
3159,62,0
3160,62,0
3161,63,0
3162,64,0
3164,66,0
3165,68,0
3166,68,0
3167,71,0
3168,68,0
3169,66,0
3169,66,0
3170,61,0
3171,54,0
3172,51,0
3173,55,0
3174,61,0
3175,62,0
3176,58,0
3177,56,0
3178,58,0
3179,59,0
3180,61,0
3180,62,0
3181,63,0
3182,65,0
3183,67,0
3184,62,0
3185,154,0
3186,305,0
3187,358,0
3188,315,0
3189,160,0
3190,107,0
3191,86,0
3192,77,0
3193,72,0
3194,69,0
3195,67,0
3196,59,0
3196,59,0
3197,60,0
3198,62,0
3199,62,0
3200,63,0
3201,59,0
3202,53,0
3203,50,0
3204,46,0
3205,206,0
3207,115,0
3208,83,0
3209,72,0
3209,69,0
3210,68,0
3211,66,0
3212,66,0
3213,65,0
3214,64,0
3215,64,0
3216,59,0
3217,56,0
3218,58,0
3219,56,0
3220,52,0
3220,49,0
3221,44,0
3222,44,0
3223,45,0
3224,47,0
3225,49,0
3226,56,0
3227,54,0
3228,54,0
3229,53,0
3230,56,0
3230,56,0
3231,55,0
3232,56,0
3233,55,0
3234,56,0
3235,55,0
3236,49,0
3237,51,0
3238,52,0
3239,54,0
3240,54,0
3241,56,0
3241,58,0
3242,59,0
3243,60,0
3244,60,0
3245,63,0
3246,63,0
3247,60,0
3249,58,0
3250,59,0
3251,60,0
3252,59,0
3252,59,0
3253,57,0
3254,57,0
3255,57,0
3256,51,0
3257,52,0
3258,54,0
3259,56,0
3260,57,0
3261,56,0
3262,57,0
3263,60,0
3263,60,0
3264,62,0
3265,62,0
3266,65,0
3267,61,0
3268,60,0
3269,59,0
3270,60,0
3271,60,0
3272,59,0
3273,59,0
3273,59,0
3274,58,0
3275,54,0
3276,51,0
3277,52,0
3278,54,0
3279,56,0
3280,58,0
3281,57,0
3282,59,0
3283,60,0
3284,62,0
3284,62,0
3285,66,0
3286,62,0
3287,61,0
3288,58,0
3289,59,0
3290,59,0
3292,58,0
3293,58,0
3294,58,0
3295,58,0
3295,58,0
3296,51,0
3297,53,0
3298,55,0
3299,56,0
3300,56,0
3301,57,0
3302,58,0
3303,60,0
3304,61,0
3305,62,0
3306,65,0
3306,64,0
3307,60,0
3308,59,0
3309,60,0
3310,60,0
3311,59,0
3312,60,0
3313,58,0
3314,58,0
3315,57,0
3316,50,0
3316,51,0
3317,55,0
3318,56,0
3319,57,0
3320,57,0
3321,57,0
3322,59,0
3323,60,0
3324,62,0
3325,62,0
3326,66,0
3327,62,0
3327,60,0
3328,60,0
3329,59,0
3330,59,0
3331,59,0
3332,59,0
3333,60,0
3335,58,0
3336,55,0
3337,51,0
3338,54,0
3338,55,0
3339,57,0
3340,58,0
3341,58,0
3342,60,0
3343,60,0
3344,62,0
3345,62,0
3346,66,0
3347,63,0
3348,61,0
3349,59,0
3349,60,0
3350,59,0
3351,59,0
3352,59,0
3353,58,0
3354,58,0
3355,58,0
3356,51,0
3357,53,0
3358,55,0
3359,55,0
3359,56,0
3360,57,0
3361,58,0
3362,60,0
3363,61,0
3364,62,0
3365,64,0
3366,64,0
3367,62,0
3368,60,0
3369,60,0
3370,61,0
3370,62,0
3371,63,0
3372,63,0
3373,62,0
3374,62,0
3375,56,0
3377,56,0
3378,58,0
3379,59,0
3380,61,0
3381,61,0
3381,62,0
3382,63,0
3383,64,0
3384,66,0
3385,67,0
3386,71,0
3387,68,0
3388,66,0
3389,64,0
3390,64,0
3391,63,0
3392,64,0
3392,63,0
3393,63,0
3394,61,0
3395,60,0
3396,55,0
3397,57,0
3398,59,0
3399,60,0
3400,62,0
3401,64,0
3402,64,0
3402,65,0
3403,66,0
3404,67,0
3405,72,0
3406,68,0
3407,66,0
3408,65,0
3409,66,0
3410,65,0
3411,64,0
3412,65,0
3413,63,0
3413,64,0
3414,63,0
3415,55,0
3416,58,0
3417,59,0
3418,60,0
3420,62,0
3421,62,0
3422,64,0
3423,65,0
3424,67,0
3424,67,0
3425,69,0
3426,70,0
3427,66,0
3428,65,0
3429,65,0
3430,65,0
3431,65,0
3432,65,0
3433,64,0
3434,63,0
3435,63,0
3435,57,0
3436,57,0
3437,59,0
3438,60,0
3439,62,0
3440,62,0
3441,63,0
3442,63,0
3443,66,0
3444,68,0
3445,68,0
3445,72,0
3446,69,0
3447,66,0
3448,64,0
3449,65,0
3450,65,0
3451,64,0
3452,65,0
3453,65,0
3454,64,0
3455,61,0
3456,56,0
3456,58,0
3457,59,0
3458,61,0
3459,63,0
3460,64,0
3461,64,0
3463,66,0
3464,67,0
3465,67,0
3466,71,0
3467,70,0
3467,66,0
3468,65,0
3469,66,0
3470,66,0
3471,65,0
3472,65,0
3473,64,0
3474,64,0
3475,63,0
3476,56,0
3477,58,0
3478,60,0
3478,60,0
3479,62,0
3480,62,0
3481,64,0
3482,66,0
3483,68,0
3484,68,0
3485,69,0
3486,70,0
3487,66,0
3488,65,0
3488,66,0
3489,66,0
3490,67,0
3491,65,0
3492,64,0
3493,64,0
3494,63,0
3495,58,0
3496,56,0
3497,59,0
3498,61,0
3499,62,0
3499,62,0
3500,62,0
3501,64,0
3502,65,0
3503,69,0
3505,69,0
3506,73,0
3507,69,0
3508,66,0
3509,65,0
3510,66,0
3510,66,0
3511,65,0
3512,65,0
3513,65,0
3514,64,0
3515,62,0
3516,56,0
3517,58,0
3518,59,0
3519,61,0
3520,64,0
3521,64,0
3521,64,0
3522,66,0
3523,67,0
3524,68,0
3525,70,0
3526,70,0
3527,68,0
3528,65,0
3529,66,0
3530,66,0
3531,64,0
3531,64,0
3532,64,0
3533,64,0
3534,64,0
3535,56,0
3536,58,0
3537,58,0
3538,60,0
3539,62,0
3540,62,0
3541,64,0
3542,65,0
3542,67,0
3543,68,0
3544,68,0
3545,72,0
3546,67,0
3548,66,0
3549,65,0
3550,66,0
3551,65,0
3552,65,0
3553,65,0
3553,64,0
3554,63,0
3555,59,0
3556,57,0
3557,58,0
3558,61,0
3559,62,0
3560,62,0
3561,62,0
3562,64,0
3563,65,0
3564,68,0
3564,69,0
3565,74,0
3566,69,0
3567,67,0
3568,65,0
3569,66,0
3570,66,0
3571,66,0
3572,65,0
3573,65,0
3574,64,0
3574,63,0
3575,56,0
3576,58,0
3577,59,0
3578,61,0
3579,63,0
3580,62,0
3581,64,0
3582,65,0
3583,67,0
3584,68,0
3585,70,0
3585,71,0
3586,67,0
3587,66,0
3588,66,0
3589,65,0
3591,66,0
3592,64,0
3593,65,0
3594,63,0
3595,64,0
3596,57,0
3596,58,0
3597,60,0
3598,60,0
3599,62,0
3600,62,0
3601,64,0
3602,65,0
3603,67,0
3604,68,0
3605,68,0
3606,71,0
3607,68,0
3607,66,0
3608,65,0
3609,66,0
3610,66,0
3611,65,0
3612,64,0
3613,63,0
3614,62,0
3615,60,0
3616,56,0
3617,60,0
3617,61,0
3618,62,0
3619,62,0
3620,63,0
3621,64,0
3622,65,0
3623,68,0
3624,68,0
3625,73,0
3626,69,0
3627,66,0
3628,65,0
3628,66,0
3629,66,0
3630,66,0
3631,65,0
3633,64,0
3634,64,0
3635,62,0
3636,56,0
3637,57,0
3638,58,0
3639,61,0
3639,62,0
3640,64,0
3641,64,0
3642,64,0
3643,66,0
3644,67,0
3645,69,0
3646,70,0
3647,67,0
3648,66,0
3649,66,0
3650,65,0
3650,66,0
3651,65,0
3652,64,0
3653,64,0
3654,64,0
3655,58,0
3656,57,0
3657,60,0
3658,61,0
3659,62,0
3660,62,0
3660,64,0
3661,66,0
3662,67,0
3663,69,0
3664,69,0
3665,72,0
3666,68,0
3667,65,0
3668,66,0
3669,66,0
3670,66,0
3671,66,0
3671,65,0
3672,64,0
3673,63,0
3674,61,0
3676,56,0
3677,58,0
3678,61,0
3679,61,0
3680,62,0
3681,62,0
3682,64,0
3682,66,0
3683,67,0
3684,68,0
3685,72,0
3686,70,0
3687,67,0
3688,65,0
3689,66,0
3690,65,0
3691,66,0
3692,65,0
3693,64,0
3693,64,0
3694,63,0
3695,55,0
3696,57,0
3697,59,0
3698,61,0
3699,62,0
3700,63,0
3701,64,0
3702,65,0
3703,67,0
3703,69,0
3704,68,0
3705,70,0
3706,68,0
3707,66,0
3708,66,0
3709,65,0
3710,64,0
3711,64,0
3712,64,0
3713,64,0
3714,63,0
3714,58,0
3715,56,0
3716,58,0
3717,59,0
3719,62,0
3720,61,0
3721,63,0
3722,65,0
3723,67,0
3724,68,0
3725,68,0
3725,72,0
3726,67,0
3727,65,0
3728,65,0
3729,66,0
3730,65,0
3731,65,0
3732,65,0
3733,64,0
3734,64,0
3735,62,0
3736,55,0
3736,57,0
3737,60,0
3738,61,0
3739,62,0
3740,61,0
3741,65,0
3742,66,0
3743,67,0
3744,68,0
3745,71,0
3746,70,0
3746,68,0
3747,66,0
3748,66,0
3749,65,0
3750,66,0
3751,64,0
3752,63,0
3753,63,0
3754,61,0
3755,55,0
3756,56,0
3757,57,0
3757,59,0
3758,61,0
3759,62,0
3761,63,0
3762,64,0
3763,66,0
3764,66,0
3765,68,0
3766,70,0
3767,68,0
3768,63,0
3768,50,0
3769,206,0
3770,271,0
3771,138,0
3772,96,0
3773,80,0
3774,72,0
3775,61,0
3776,61,0
3777,61,0
3778,62,0
3779,63,0
3780,64,0
3781,64,0
3782,65,0
3782,64,0
3783,60,0
3784,56,0
3785,56,0
3786,50,0
3787,48,0
3788,48,0
3789,49,0
3790,50,0
3791,51,0
3792,51,0
3792,51,0
3793,52,0
3794,50,0
3795,48,0
3796,49,0
3797,51,0
3798,52,0
3799,53,0
3800,54,0
3801,55,0
3802,58,0
3804,58,0
3804,59,0
3805,64,0
3806,60,0
3807,57,0
3808,56,0
3809,57,0
3810,57,0
3811,57,0
3812,57,0
3813,57,0
3814,57,0
3814,55,0
3815,49,0
3816,51,0
3817,53,0
3818,54,0
3819,55,0
3820,55,0
3821,57,0
3822,57,0
3823,60,0
3824,60,0
3825,63,0
3825,64,0
3826,59,0
3827,57,0
3828,58,0
3829,59,0
3830,58,0
3831,58,0
3832,58,0
3833,57,0
3834,57,0
3835,50,0
3835,52,0
3836,52,0
3837,54,0
3838,55,0
3839,56,0
3840,57,0
3841,59,0
3842,60,0
3843,61,0
3844,61,0
3845,65,0
3847,61,0
3847,58,0
3848,59,0
3849,59,0
3850,59,0
3851,58,0
3852,58,0
3853,57,0
3854,57,0
3855,55,0
3856,51,0
3857,53,0
3857,54,0
3858,56,0
3859,56,0
3860,56,0
3861,58,0
3862,59,0
3863,60,0
3864,61,0
3865,66,0
3866,63,0
3867,60,0
3868,59,0
3868,59,0
3869,59,0
3870,58,0
3871,58,0
3872,58,0
3873,58,0
3874,57,0
3875,50,0
3876,52,0
3877,54,0
3878,56,0
3878,56,0
3879,56,0
3880,58,0
3881,59,0
3882,61,0
3883,62,0
3884,63,0
3885,65,0
3886,61,0
3887,59,0
3889,59,0
3890,59,0
3890,59,0
3891,59,0
3892,58,0
3893,58,0
3894,57,0
3895,51,0
3896,51,0
3897,53,0
3898,55,0
3899,56,0
3900,57,0
3900,58,0
3901,59,0
3902,59,0
3903,61,0
3904,62,0
3905,66,0
3906,62,0
3907,60,0
3908,59,0
3909,60,0
3910,59,0
3911,59,0
3911,58,0
3912,58,0
3913,57,0
3914,56,0
3915,50,0
3916,52,0
3917,55,0
3918,57,0
3919,57,0
3920,58,0
3921,58,0
3921,60,0
3922,62,0
3923,61,0
3924,66,0
3925,64,0
3926,60,0
3927,59,0
3928,60,0
3929,59,0
3930,60,0
3932,59,0
3933,60,0
3933,59,0
3934,60,0
3935,53,0
3936,56,0
3937,59,0
3938,60,0
3939,61,0
3940,61,0
3941,60,0
3942,58,0
3943,54,0
3943,52,0
3944,57,0
3945,66,0
3946,65,0
3947,65,0
3948,65,0
3949,65,0
3950,65,0
3951,65,0
3952,63,0
3953,56,0
3954,47,0
3954,40,0
3955,46,0
3956,54,0
3957,59,0
3958,61,0
3959,63,0
3960,63,0
3961,64,0
3962,66,0
3963,67,0
3964,68,0
3964,73,0
3965,64,0
3966,73,0
3967,267,0
3968,348,0
3969,177,0
3970,112,0
3971,87,0
3972,77,0
3973,71,0
3975,62,0
3976,61,0
3977,60,0
3978,64,0
3979,62,0
3980,64,0
3980,64,0
3981,64,0
3982,63,0
3983,59,0
3984,56,0
3985,56,0
3986,50,0
3987,48,0
3988,47,0
3989,50,0
3990,51,0
3990,53,0
3991,55,0
3992,56,0
3993,57,0
3994,56,0
3995,51,0
3996,53,0
3997,55,0
3998,56,0
3999,58,0
4000,58,0
4001,59,0
4001,61,0
4002,63,0
4003,63,0
4004,66,0
4005,64,0
4006,61,0
4007,60,0
4008,61,0
4009,60,0
4010,61,0
4011,60,0
4011,60,0
4012,58,0
4013,58,0
4014,51,0
4015,53,0
4017,55,0
4018,56,0
4019,59,0
4020,59,0
4021,58,0
4022,60,0
4023,61,0
4023,63,0
4024,63,0
4025,67,0
4026,63,0
4027,61,0
4028,60,0
4029,61,0
4030,59,0
4031,61,0
4032,60,0
4033,59,0
4033,60,0
4034,55,0
4035,51,0
4036,54,0
4037,56,0
4038,57,0
4039,58,0
4040,60,0
4041,60,0
4042,60,0
4043,62,0
4044,62,0
4044,67,0
4045,64,0
4046,62,0
4047,59,0
4048,60,0
4049,60,0
4050,60,0
4051,59,0
4052,59,0
4053,58,0
4054,58,0
4054,53,0
4055,54,0
4056,55,0
4057,56,0
4058,57,0
4060,57,0
4061,59,0
4062,61,0
4063,62,0
4064,64,0
4065,65,0
4066,64,0
4066,62,0
4067,60,0
4068,60,0
4069,61,0
4070,60,0
4071,60,0
4072,59,0
4073,58,0
4074,58,0
4075,52,0
4076,52,0
4076,55,0
4077,57,0
4078,58,0
4079,58,0
4080,58,0
4081,61,0
4082,62,0
4083,64,0
4084,64,0
4085,66,0
4086,64,0
4087,62,0
4087,60,0
4088,61,0
4089,60,0
4090,61,0
4091,60,0
4092,60,0
4093,59,0
4094,56,0
4095,51,0
4096,54,0
4097,56,0
4097,57,0
4098,58,0
4099,59,0
4100,60,0
4101,60,0
4103,63,0
4104,63,0
4105,67,0
4106,64,0
4107,61,0
4108,60,0
4109,62,0
4109,60,0
4110,60,0
4111,59,0
4112,59,0
4113,59,0
4114,59,0
4115,52,0
4116,54,0
4117,55,0
4118,57,0
4119,58,0
4119,59,0
4120,60,0
4121,62,0
4122,64,0
4123,64,0
4124,64,0
4125,65,0
4126,62,0
4127,60,0
4128,61,0
4129,61,0
4130,60,0
4130,61,0
4131,59,0
4132,59,0
4133,58,0
4134,52,0
4135,53,0
4136,55,0
4137,56,0
4138,58,0
4139,58,0
4140,58,0
4140,60,0
4141,60,0
4142,60,0
4143,58,0
4145,58,0
4146,54,0
4147,54,0
4148,59,0
4149,64,0
4150,64,0
4151,65,0
4152,65,0
4152,62,0
4153,48,0
4154,210,0
4155,313,0
4156,317,0
4157,158,0
4158,105,0
4159,84,0
4160,76,0
4161,73,0
4162,72,0
4163,62,0
4164,202,0
4165,323,0
4166,278,0
4167,344,0
4168,212,0
4169,125,0
4170,93,0
4171,80,0
4172,74,0
4173,70,0
4173,67,0
4174,58,0
4175,59,0
4176,60,0
4177,61,0
4178,61,0
4179,63,0
4180,64,0
4181,65,0
4182,67,0
4183,66,0
4183,61,0
4184,57,0
4185,51,0
4186,47,0
4188,46,0
4189,48,0
4190,50,0
4191,53,0
4192,53,0
4193,55,0
4194,56,0
4195,52,0
4195,52,0
4196,55,0
4197,57,0
4198,58,0
4199,58,0
4200,59,0
4201,60,0
4202,62,0
4203,64,0
4204,65,0
4205,69,0
4205,64,0
4206,64,0
4207,61,0
4208,62,0
4209,62,0
4210,62,0
4211,62,0
4212,62,0
4213,61,0
4214,60,0
4215,53,0
4216,54,0
4216,57,0
4217,59,0
4218,60,0
4219,60,0
4220,61,0
4221,62,0
4222,64,0
4223,64,0
4224,67,0
4225,66,0
4226,64,0
4226,62,0
4227,63,0
4228,62,0
4229,61,0
4231,60,0
4232,60,0
4233,60,0
4234,60,0
4235,52,0
4236,54,0
4237,56,0
4238,57,0
4238,57,0
4239,59,0
4240,59,0
4241,62,0
4242,63,0
4243,64,0
4244,65,0
4245,66,0
4246,63,0
4247,61,0
4248,62,0
4248,62,0
4249,62,0
4250,61,0
4251,61,0
4252,60,0
4253,59,0
4254,55,0
4255,53,0
4256,56,0
4257,57,0
4258,59,0
4259,58,0
4259,59,0
4260,60,0
4261,62,0
4262,64,0
4263,65,0
4264,69,0
4265,66,0
4266,63,0
4267,60,0
4268,62,0
4269,61,0
4269,61,0
4270,61,0
4271,60,0
4273,59,0
4274,59,0
4275,52,0
4276,54,0
4277,56,0
4278,58,0
4279,59,0
4280,59,0
4281,61,0
4281,62,0
4282,62,0
4283,64,0
4284,67,0
4285,66,0
4286,64,0
4287,62,0
4288,62,0
4289,62,0
4290,61,0
4291,61,0
4291,61,0
4292,60,0
4293,60,0
4294,52,0
4295,54,0
4296,56,0
4297,56,0
4298,57,0
4299,59,0
4300,60,0
4301,62,0
4302,64,0
4302,64,0
4303,64,0
4304,67,0
4305,64,0
4306,61,0
4307,61,0
4308,63,0
4309,61,0
4310,61,0
4311,60,0
4312,59,0
4312,59,0
4313,55,0
4314,52,0
4316,55,0
4317,57,0
4318,58,0
4319,59,0
4320,58,0
4321,60,0
4322,61,0
4323,64,0
4324,64,0
4324,70,0
4325,66,0
4326,62,0
4327,60,0
4328,62,0
4329,61,0
4330,61,0
4331,60,0
4332,61,0
4333,60,0
4334,58,0
4334,52,0
4335,54,0
4336,56,0
4337,58,0
4338,59,0
4339,60,0
4340,60,0
4341,62,0
4342,62,0
4343,64,0
4344,65,0
4345,65,0
4345,60,0
4346,57,0
4347,56,0
4348,60,0
4349,61,0
4350,63,0
4351,63,0
4352,64,0
4353,62,0
4354,56,0
4355,56,0
4355,59,0
4356,59,0
4357,59,0
4359,61,0
4360,60,0
4361,58,0
4362,57,0
4363,58,0
4364,61,0
4365,68,0
4366,66,0
4367,64,0
4367,66,0
4368,66,0
4369,65,0
4370,64,0
4371,60,0
4372,56,0
4373,56,0
4374,55,0
4375,54,0
4376,58,0
4377,59,0
4377,60,0
4378,61,0
4379,61,0
4380,62,0
4381,64,0
4382,67,0
4383,68,0
4384,73,0
4385,70,0
4386,67,0
4387,61,0
4388,54,0
4388,52,0
4389,55,0
4390,61,0
4391,61,0
4392,62,0
4393,62,0
4394,54,0
4395,57,0
4396,58,0
4397,60,0
4398,61,0
4398,62,0
4399,63,0
4401,64,0
4402,65,0
4403,67,0
4404,68,0
4405,71,0
4406,68,0
4407,66,0
4408,65,0
4409,65,0
4410,64,0
4410,64,0
4411,62,0
4412,63,0
4413,62,0
4414,56,0
4415,56,0
4416,57,0
4417,60,0
4418,60,0
4419,62,0
4420,62,0
4420,64,0
4421,66,0
4422,67,0
4423,67,0
4424,71,0
4425,67,0
4426,65,0
4427,65,0
4428,65,0
4429,65,0
4430,65,0
4431,65,0
4431,63,0
4432,62,0
4433,61,0
4434,56,0
4435,57,0
4436,60,0
4437,61,0
4438,62,0
4439,62,0
4440,64,0
4441,65,0
4442,67,0
4442,68,0
4444,72,0
4445,70,0
4446,67,0
4447,65,0
4448,65,0
4449,65,0
4450,65,0
4451,65,0
4452,64,0
4453,63,0
4453,64,0
4454,55,0
4455,57,0
4456,58,0
4457,61,0
4458,63,0
4459,62,0
4460,65,0
4461,65,0
4462,66,0
4463,67,0
4464,69,0
4464,71,0
4465,68,0
4466,66,0
4467,66,0
4468,66,0
4469,65,0
4470,64,0
4471,64,0
4472,64,0
4473,63,0
4474,58,0
4474,56,0
4475,57,0
4476,60,0
4477,60,0
4478,62,0
4479,63,0
4480,64,0
4481,66,0
4482,68,0
4483,68,0
4484,72,0
4485,69,0
4485,66,0
4487,66,0
4488,67,0
4489,66,0
4490,66,0
4491,64,0
4492,63,0
4493,63,0
4494,62,0
4495,55,0
4496,58,0
4496,59,0
4497,61,0
4498,63,0
4499,61,0
4500,63,0
4501,65,0
4502,67,0
4503,69,0
4504,72,0
4505,70,0
4506,67,0
4507,65,0
4507,67,0
4508,66,0
4509,67,0
4510,66,0
4511,65,0
4512,64,0
4513,63,0
4514,56,0
4515,57,0
4516,59,0
4517,61,0
4517,62,0
4518,64,0
4519,64,0
4520,65,0
4521,67,0
4522,67,0
4523,67,0
4524,72,0
4525,68,0
4526,66,0
4527,66,0
4529,66,0
4529,64,0
4530,64,0
4531,66,0
4532,64,0
4533,63,0
4534,60,0
4535,56,0
4536,58,0
4537,60,0
4538,61,0
4539,62,0
4539,63,0
4540,64,0
4541,66,0
4542,67,0
4543,68,0
4544,72,0
4545,68,0
4546,66,0
4547,65,0
4548,66,0
4549,66,0
4550,66,0
4550,64,0
4551,63,0
4552,62,0
4553,62,0
4554,56,0
4555,58,0
4556,60,0
4557,61,0
4558,64,0
4559,62,0
4560,63,0
4560,65,0
4561,68,0
4562,69,0
4563,71,0
4564,71,0
4565,67,0
4566,65,0
4567,66,0
4568,65,0
4569,66,0
4570,65,0
4572,65,0
4572,64,0
4573,63,0
4574,56,0
4575,56,0
4576,58,0
4577,60,0
4578,62,0
4579,62,0
4580,64,0
4581,64,0
4582,67,0
4582,67,0
4583,68,0
4584,72,0
4585,69,0
4586,67,0
4587,66,0
4588,66,0
4589,66,0
4590,64,0
4591,64,0
4592,64,0
4593,63,0
4593,61,0
4594,57,0
4595,58,0
4596,60,0
4597,60,0
4598,63,0
4599,63,0
4600,65,0
4601,66,0
4602,67,0
4603,68,0
4603,72,0
4604,69,0
4605,66,0
4606,66,0
4607,65,0
4608,66,0
4609,65,0
4610,65,0
4611,64,0
4612,63,0
4613,62,0
4615,57,0
4615,57,0
4616,59,0
4617,62,0
4618,63,0
4619,62,0
4620,63,0
4621,65,0
4622,67,0
4623,69,0
4624,70,0
4625,71,0
4625,68,0
4626,65,0
4627,66,0
4628,66,0
4629,65,0
4630,65,0
4631,64,0
4632,64,0
4633,64,0
4634,57,0
4635,56,0
4636,59,0
4636,61,0
4637,62,0
4638,64,0
4639,63,0
4640,64,0
4641,66,0
4642,67,0
4643,68,0
4644,72,0
4645,68,0
4646,66,0
4646,66,0
4647,65,0
4648,65,0
4649,65,0
4650,64,0
4651,64,0
4652,63,0
4653,61,0
4654,56,0
4655,57,0
4657,60,0
4658,61,0
4658,61,0
4659,64,0
4660,64,0
4661,66,0
4662,67,0
4663,68,0
4664,72,0
4665,69,0
4666,66,0
4667,66,0
4668,67,0
4668,66,0
4669,65,0
4670,64,0
4671,64,0
4672,63,0
4673,62,0
4674,55,0
4675,58,0
4676,60,0
4677,61,0
4678,63,0
4679,63,0
4679,63,0
4680,65,0
4681,67,0
4682,68,0
4683,69,0
4684,71,0
4685,67,0
4686,65,0
4687,65,0
4688,65,0
4689,65,0
4689,64,0
4690,64,0
4691,63,0
4692,62,0
4693,57,0
4694,55,0
4695,58,0
4696,63,0
4697,61,0
4698,63,0
4700,64,0
4701,65,0
4701,65,0
4702,67,0
4703,67,0
4704,72,0
4705,69,0
4706,66,0
4707,64,0
4708,65,0
4709,65,0
4710,65,0
4711,64,0
4711,64,0
4712,63,0
4713,62,0
4714,56,0
4715,56,0
4716,59,0
4717,60,0
4718,60,0
4719,61,0
4720,64,0
4721,66,0
4722,66,0
4722,68,0
4723,71,0
4724,69,0
4725,66,0
4726,66,0
4727,67,0
4728,65,0
4729,63,0
4730,59,0
4731,59,0
4732,60,0
4732,61,0
4733,54,0
4734,57,0
4735,58,0
4736,60,0
4737,61,0
4738,62,0
4739,62,0
4740,64,0
4741,66,0
4743,68,0
4744,69,0
4744,72,0
4745,63,0
4746,45,0
4747,247,0
4748,350,0
4749,163,0
4750,107,0
4751,84,0
4752,75,0
4753,70,0
4754,60,0
4755,61,0
4756,61,0
4757,62,0
4758,62,0
4758,64,0
4759,64,0
4760,63,0
4761,62,0
4762,57,0
4763,54,0
4764,54,0
4765,50,0
4766,47,0
4767,48,0
4768,50,0
4768,51,0
4769,53,0
4770,53,0
4771,54,0
4772,54,0
4773,50,0
4774,48,0
4775,51,0
4776,54,0
4777,56,0
4778,56,0
4779,56,0
4779,57,0
4780,58,0
4781,59,0
4782,60,0
4783,65,0
4785,61,0
4786,59,0
4787,58,0
4788,58,0
4789,57,0
4790,57,0
4791,58,0
4791,57,0
4792,58,0
4793,57,0
4794,50,0
4795,51,0
4796,54,0
4797,54,0
4798,57,0
4799,57,0
4800,58,0
4801,59,0
4801,61,0
4802,61,0
4803,64,0
4804,63,0
4805,60,0
4806,59,0
4807,60,0
4808,60,0
4809,59,0
4810,59,0
4811,58,0
4812,57,0
4812,57,0
4813,51,0
4814,51,0
4815,53,0
4816,55,0
4817,56,0
4818,56,0
4819,58,0
4820,59,0
4821,61,0
4822,62,0
4822,62,0
4823,65,0
4824,62,0
4825,60,0
4826,59,0
4828,59,0
4829,60,0
4830,59,0
4831,59,0
4832,58,0
4833,58,0
4834,55,0
4834,52,0
4835,53,0
4836,56,0
4837,56,0
4838,58,0
4839,57,0
4840,58,0
4841,60,0
4842,61,0
4843,63,0
4844,66,0
4844,64,0
4845,60,0
4846,59,0
4847,60,0
4848,60,0
4849,60,0
4850,59,0
4851,58,0
4852,58,0
4853,58,0
4854,51,0
4855,52,0
4855,54,0
4856,56,0
4857,57,0
4858,58,0
4859,58,0
4860,60,0
4861,62,0
4862,63,0
4863,64,0
4864,65,0
4865,62,0
4865,60,0
4866,60,0
4867,60,0
4868,59,0
4869,60,0
4871,59,0
4872,58,0
4873,58,0
4874,52,0
4875,52,0
4876,54,0
4877,56,0
4877,57,0
4878,57,0
4879,59,0
4880,60,0
4881,62,0
4882,63,0
4883,62,0
4884,67,0
4885,62,0
4886,61,0
4887,61,0
4887,60,0
4888,61,0
4889,60,0
4890,60,0
4891,58,0
4892,59,0
4893,56,0
4894,52,0
4895,53,0
4896,55,0
4897,56,0
4898,58,0
4898,58,0
4899,59,0
4900,61,0
4901,62,0
4902,63,0
4903,67,0
4904,64,0
4905,61,0
4906,60,0
4907,61,0
4908,60,0
4908,60,0
4909,60,0
4910,60,0
4911,59,0
4913,58,0
4914,51,0
4915,53,0
4916,55,0
4917,58,0
4918,61,0
4919,62,0
4920,61,0
4920,58,0
4921,51,0
4922,45,0
4923,86,0
4924,71,0
4925,67,0
4926,66,0
4927,66,0
4928,66,0
4929,66,0
4930,65,0
4930,64,0
4931,64,0
4932,63,0
4933,57,0
4934,56,0
4935,57,0
4936,58,0
4937,58,0
4938,57,0
4939,54,0
4940,56,0
4941,58,0
4941,58,0
4942,59,0
4943,64,0
4944,62,0
4945,59,0
4946,58,0
4947,60,0
4948,60,0
4949,60,0
4950,59,0
4951,59,0
4951,58,0
4952,57,0
4953,52,0
4954,55,0
4956,56,0
4957,58,0
4958,59,0
4959,58,0
4960,60,0
4961,62,0
4962,62,0
4963,63,0
4963,67,0
4964,65,0
4965,62,0
4966,60,0
4967,61,0
4968,61,0
4969,61,0
4970,60,0
4971,60,0
4972,60,0
4973,58,0
4973,52,0
4974,54,0
4975,56,0
4976,57,0
4977,58,0
4978,59,0
4979,59,0
4980,61,0
4981,63,0
4982,64,0
4983,64,0
4984,68,0
4984,64,0
4985,61,0
4986,62,0
4987,62,0
4988,61,0
4989,61,0
4990,61,0
4991,60,0
4992,59,0
4993,55,0
4994,53,0
4994,55,0
4995,57,0
4996,57,0
4997,59,0
4999,59,0
