timestamp_ms,emg_raw,lead_off
0,237,0
0,180,0
1,145,0
1,123,0
2,105,0
2,95,0
2,87,0
3,80,0
3,77,0
3,73,0
4,69,0
5,66,0
5,67,0
7,65,0
8,65,0
8,64,0
9,66,0
10,55,0
10,51,0
11,50,0
12,54,0
13,57,0
13,60,0
14,61,0
15,63,0
16,64,0
16,65,0
17,64,0
18,63,0
19,59,0
19,66,0
20,71,0
21,71,0
22,69,0
22,67,0
23,65,0
24,62,0
25,61,0
25,61,0
26,62,0
27,62,0
27,61,0
28,66,0
29,54,0
30,49,0
30,48,0
31,52,0
32,56,0
33,60,0
33,60,0
34,62,0
35,63,0
36,63,0
36,64,0
37,63,0
38,59,0
39,65,0
39,69,0
40,72,0
41,70,0
42,67,0
42,65,0
43,62,0
44,61,0
45,61,0
45,61,0
46,62,0
47,61,0
49,64,0
49,55,0
50,49,0
51,47,0
52,50,0
52,55,0
53,60,0
54,59,0
55,62,0
55,63,0
56,62,0
57,64,0
58,63,0
58,58,0
59,65,0
60,70,0
61,72,0
61,70,0
62,66,0
63,64,0
64,62,0
64,61,0
65,61,0
66,61,0
67,62,0
67,62,0
68,64,0
69,56,0
70,48,0
70,47,0
71,49,0
72,54,0
73,58,0
73,60,0
74,61,0
75,63,0
76,63,0
76,63,0
77,63,0
78,59,0
79,64,0
79,70,0
80,72,0
81,70,0
82,68,0
82,64,0
83,63,0
84,60,0
85,60,0
85,61,0
86,61,0
87,62,0
88,64,0
88,55,0
89,49,0
90,46,0
90,48,0
92,55,0
93,59,0
94,59,0
94,61,0
95,61,0
96,63,0
97,63,0
97,64,0
98,60,0
99,62,0
100,69,0
101,72,0
101,70,0
102,66,0
103,64,0
104,62,0
105,61,0
106,61,0
106,61,0
107,61,0
108,64,0
109,54,0
110,49,0
111,48,0
111,53,0
112,56,0
113,59,0
114,61,0
115,63,0
115,63,0
116,63,0
117,64,0
118,58,0
119,67,0
120,71,0
120,71,0
121,68,0
122,64,0
123,61,0
124,61,0
125,61,0
125,60,0
126,61,0
127,62,0
128,61,0
129,50,0
130,47,0
130,50,0
131,55,0
132,57,0
133,59,0
135,62,0
136,63,0
136,62,0
137,62,0
138,61,0
139,64,0
140,70,0
141,70,0
141,69,0
142,66,0
143,63,0
144,61,0
145,61,0
146,61,0
146,61,0
147,62,0
148,65,0
149,54,0
150,48,0
151,48,0
151,54,0
152,58,0
153,59,0
154,61,0
155,62,0
155,64,0
156,64,0
157,62,0
158,59,0
159,67,0
160,71,0
160,70,0
161,68,0
162,65,0
163,62,0
164,61,0
165,61,0
165,61,0
166,61,0
167,62,0
168,59,0
169,50,0
170,47,0
170,49,0
171,55,0
172,59,0
173,59,0
174,63,0
175,63,0
175,64,0
177,63,0
178,60,0
179,65,0
180,70,0
181,71,0
181,70,0
182,65,0
183,64,0
184,61,0
185,60,0
186,62,0
186,63,0
187,61,0
188,65,0
189,53,0
190,48,0
191,46,0
191,53,0
192,57,0
193,61,0
194,61,0
195,61,0
196,63,0
196,63,0
197,63,0
198,58,0
199,68,0
200,72,0
200,71,0
201,66,0
202,65,0
203,62,0
204,61,0
205,61,0
205,62,0
206,62,0
207,62,0
208,57,0
209,49,0
210,47,0
210,50,0
211,56,0
212,58,0
213,61,0
214,62,0
215,63,0
215,64,0
216,63,0
217,59,0
218,64,0
220,70,0
221,72,0
221,69,0
222,65,0
223,64,0
224,62,0
225,60,0
226,61,0
226,62,0
227,62,0
228,64,0
229,52,0
230,48,0
231,47,0
231,53,0
232,57,0
233,60,0
234,62,0
235,62,0
236,63,0
236,64,0
237,64,0
238,58,0
239,68,0
240,71,0
241,70,0
241,66,0
242,63,0
243,62,0
244,61,0
245,61,0
245,61,0
246,62,0
247,64,0
248,57,0
249,48,0
250,47,0
250,51,0
251,58,0
252,59,0
253,61,0
254,62,0
255,63,0
255,62,0
256,63,0
257,59,0
258,65,0
259,69,0
260,72,0
260,68,0
261,65,0
263,63,0
264,61,0
265,61,0
266,61,0
266,61,0
267,62,0
268,64,0
269,51,0
270,47,0
271,48,0
271,54,0
272,57,0
273,60,0
274,62,0
275,63,0
276,63,0
276,64,0
277,64,0
278,62,0
279,68,0
280,72,0
281,70,0
281,67,0
282,64,0
283,62,0
284,61,0
285,61,0
286,62,0
286,61,0
287,64,0
288,57,0
289,48,0
290,46,0
290,52,0
291,58,0
292,59,0
293,61,0
294,63,0
295,63,0
295,63,0
296,63,0
297,58,0
298,66,0
299,70,0
300,72,0
300,70,0
301,67,0
302,63,0
303,61,0
305,61,0
306,61,0
306,62,0
307,61,0
308,62,0
309,51,0
310,47,0
311,48,0
311,55,0
312,58,0
313,59,0
314,61,0
315,63,0
316,64,0
316,64,0
317,62,0
318,61,0
319,69,0
320,72,0
321,69,0
321,67,0
322,64,0
323,61,0
324,61,0
325,61,0
326,62,0
326,62,0
327,64,0
328,56,0
329,49,0
330,47,0
330,51,0
331,56,0
332,59,0
333,61,0
334,62,0
335,62,0
335,64,0
336,63,0
337,58,0
338,66,0
339,72,0
340,71,0
340,68,0
341,66,0
342,64,0
343,61,0
344,61,0
345,61,0
345,62,0
346,62,0
348,61,0
349,51,0
350,47,0
351,47,0
351,54,0
352,58,0
353,60,0
354,61,0
355,62,0
356,64,0
356,63,0
357,62,0
358,63,0
359,70,0
360,72,0
361,70,0
361,66,0
362,64,0
363,62,0
364,60,0
365,60,0
366,61,0
366,62,0
367,64,0
368,54,0
369,49,0
370,47,0
371,52,0
371,56,0
372,60,0
373,62,0
374,63,0
375,64,0
375,64,0
376,64,0
377,57,0
378,66,0
379,71,0
380,73,0
380,68,0
381,65,0
382,63,0
383,61,0
384,61,0
385,61,0
385,62,0
386,61,0
387,60,0
388,50,0
389,47,0
391,49,0
391,55,0
392,59,0
393,60,0
394,63,0
395,63,0
396,63,0
396,63,0
397,61,0
398,64,0
399,70,0
400,72,0
401,71,0
401,66,0
402,64,0
403,62,0
404,61,0
405,60,0
406,61,0
406,62,0
407,65,0
408,54,0
409,47,0
410,48,0
411,54,0
411,57,0
412,59,0
413,62,0
414,64,0
415,63,0
416,64,0
416,64,0
417,58,0
418,68,0
419,71,0
420,72,0
420,69,0
421,65,0
422,62,0
423,61,0
424,61,0
425,61,0
425,62,0
426,63,0
427,59,0
428,49,0
429,47,0
430,49,0
430,55,0
431,58,0
433,60,0
434,63,0
435,64,0
436,63,0
436,64,0
437,61,0
438,64,0
439,71,0
440,72,0
441,69,0
441,68,0
442,64,0
443,61,0
444,62,0
445,62,0
446,62,0
446,63,0
447,66,0
448,54,0
449,48,0
450,47,0
451,53,0
451,58,0
452,59,0
453,61,0
454,63,0
455,64,0
456,64,0
456,63,0
457,59,0
458,69,0
459,73,0
460,71,0
460,69,0
461,66,0
462,63,0
463,62,0
464,62,0
465,62,0
465,61,0
466,63,0
467,59,0
468,50,0
469,47,0
470,49,0
470,56,0
471,59,0
472,60,0
473,63,0
474,63,0
476,64,0
476,64,0
477,59,0
478,64,0
479,71,0
480,72,0
481,69,0
481,66,0
482,64,0
483,62,0
484,60,0
485,62,0
486,62,0
486,62,0
487,65,0
488,53,0
489,48,0
490,47,0
491,54,0
491,58,0
492,61,0
493,62,0
494,62,0
495,64,0
496,64,0
496,63,0
497,60,0
498,70,0
499,72,0
500,71,0
501,67,0
501,65,0
502,63,0
503,61,0
504,61,0
505,62,0
505,62,0
506,62,0
507,57,0
508,50,0
509,47,0
510,51,0
510,56,0
511,59,0
512,61,0
513,62,0
514,63,0
515,63,0
515,63,0
516,59,0
517,66,0
519,71,0
520,73,0
521,68,0
521,65,0
522,65,0
523,62,0
524,60,0
525,61,0
526,62,0
526,62,0
527,64,0
528,52,0
529,48,0
530,48,0
531,54,0
531,57,0
532,61,0
533,62,0
534,63,0
535,64,0
536,64,0
536,64,0
537,60,0
538,69,0
539,72,0
540,71,0
541,68,0
541,64,0
542,62,0
543,62,0
544,61,0
545,61,0
546,62,0
546,64,0
547,56,0
548,49,0
549,48,0
550,50,0
550,55,0
551,58,0
552,62,0
553,63,0
554,64,0
555,64,0
555,64,0
556,59,0
557,67,0
558,70,0
559,72,0
561,70,0
561,66,0
562,63,0
563,62,0
564,61,0
565,61,0
566,61,0
566,62,0
567,64,0
568,51,0
569,47,0
570,48,0
571,54,0
571,57,0
572,59,0
573,63,0
574,64,0
575,63,0
576,64,0
576,64,0
577,62,0
578,70,0
579,71,0
580,71,0
581,67,0
581,64,0
582,62,0
583,61,0
584,61,0
585,61,0
586,62,0
586,65,0
587,57,0
588,48,0
589,47,0
590,52,0
590,58,0
591,58,0
592,61,0
593,63,0
594,63,0
595,63,0
595,64,0
596,59,0
597,67,0
598,69,0
599,71,0
600,69,0
600,66,0
601,62,0
602,62,0
604,62,0
605,62,0
606,62,0
606,62,0
607,62,0
608,52,0
609,47,0
610,48,0
611,56,0
611,58,0
612,59,0
613,62,0
614,63,0
615,63,0
616,64,0
616,62,0
617,63,0
618,69,0
619,72,0
620,69,0
621,68,0
621,64,0
622,61,0
623,61,0
624,61,0
625,62,0
626,61,0
626,65,0
627,55,0
628,49,0
629,47,0
630,52,0
631,57,0
631,59,0
632,61,0
633,62,0
634,64,0
635,64,0
635,64,0
636,58,0
637,67,0
638,72,0
639,72,0
640,68,0
640,65,0
641,64,0
642,61,0
643,61,0
644,62,0
645,62,0
645,62,0
647,61,0
648,51,0
649,48,0
650,48,0
651,55,0
651,59,0
652,61,0
653,62,0
654,63,0
655,64,0
656,64,0
656,61,0
657,63,0
658,70,0
659,73,0
660,69,0
661,67,0
661,64,0
662,62,0
663,61,0
664,61,0
665,62,0
666,62,0
666,64,0
667,54,0
668,48,0
669,47,0
670,51,0
671,57,0
671,59,0
672,62,0
673,62,0
674,64,0
675,64,0
676,64,0
676,57,0
677,67,0
678,72,0
679,72,0
680,68,0
680,64,0
681,63,0
682,62,0
683,60,0
684,60,0
685,62,0
685,62,0
686,60,0
687,50,0
689,48,0
690,50,0
691,55,0
691,59,0
692,61,0
693,63,0
694,63,0
695,64,0
696,64,0
696,61,0
697,64,0
698,69,0
699,72,0
700,70,0
701,66,0
701,63,0
702,62,0
703,62,0
704,62,0
705,61,0
706,62,0
706,66,0
707,53,0
708,48,0
709,48,0
710,55,0
711,59,0
711,59,0
712,63,0
713,63,0
714,63,0
715,64,0
716,64,0
716,59,0
717,68,0
718,71,0
719,72,0
720,70,0
721,66,0
721,63,0
722,62,0
723,61,0
724,62,0
725,62,0
725,63,0
726,59,0
727,50,0
728,46,0
729,49,0
730,57,0
730,58,0
732,61,0
733,63,0
734,64,0
735,64,0
736,64,0
736,61,0
737,64,0
738,70,0
739,72,0
740,70,0
741,67,0
741,64,0
742,61,0
743,61,0
744,61,0
745,60,0
746,61,0
746,65,0
747,54,0
748,48,0
749,47,0
750,54,0
751,59,0
751,59,0
752,62,0
753,64,0
754,64,0
755,63,0
756,63,0
756,59,0
757,69,0
758,71,0
759,71,0
760,69,0
761,66,0
761,62,0
762,61,0
763,61,0
764,62,0
765,62,0
765,64,0
766,59,0
767,50,0
768,47,0
769,49,0
770,56,0
770,60,0
771,61,0
772,64,0
773,63,0
775,64,0
776,64,0
776,59,0
777,64,0
778,71,0
779,72,0
780,69,0
781,66,0
781,64,0
782,62,0
783,61,0
784,62,0
785,62,0
786,62,0
786,65,0
787,53,0
788,48,0
789,47,0
790,54,0
791,58,0
791,60,0
792,62,0
793,63,0
794,64,0
795,64,0
796,63,0
796,59,0
797,69,0
798,72,0
799,70,0
800,68,0
801,65,0
801,64,0
802,62,0
803,62,0
804,61,0
805,62,0
806,63,0
806,55,0
807,49,0
808,47,0
809,51,0
810,56,0
810,59,0
811,62,0
812,62,0
813,64,0
814,64,0
815,65,0
815,59,0
817,66,0
818,71,0
819,73,0
820,69,0
821,65,0
821,64,0
822,61,0
823,60,0
824,59,0
825,62,0
826,62,0
826,63,0
827,51,0
828,48,0
829,48,0
830,54,0
831,59,0
831,60,0
832,64,0
833,63,0
834,64,0
835,65,0
836,63,0
836,61,0
837,69,0
838,71,0
839,70,0
840,66,0
841,63,0
841,62,0
842,61,0
843,61,0
844,61,0
845,62,0
846,64,0
846,56,0
847,49,0
848,48,0
849,52,0
850,57,0
851,60,0
851,62,0
852,63,0
853,64,0
854,64,0
855,63,0
855,59,0
856,64,0
857,70,0
858,72,0
860,69,0
861,65,0
861,62,0
862,62,0
863,62,0
864,61,0
865,61,0
866,62,0
866,63,0
867,51,0
868,48,0
869,49,0
870,55,0
871,58,0
871,59,0
872,63,0
873,63,0
874,64,0
875,64,0
876,63,0
876,62,0
877,69,0
878,71,0
879,70,0
880,66,0
881,64,0
881,62,0
882,62,0
883,62,0
884,61,0
885,62,0
886,65,0
886,56,0
887,48,0
888,48,0
889,52,0
890,58,0
891,60,0
891,61,0
892,63,0
893,64,0
894,64,0
895,62,0
895,58,0
896,66,0
897,70,0
898,72,0
899,69,0
900,66,0
900,62,0
901,61,0
903,61,0
904,62,0
905,62,0
906,62,0
906,62,0
907,51,0
908,47,0
909,48,0
910,55,0
911,58,0
911,60,0
912,61,0
913,64,0
914,64,0
915,64,0
916,61,0
916,62,0
917,71,0
918,72,0
919,70,0
920,66,0
921,66,0
921,62,0
922,61,0
923,61,0
924,62,0
925,62,0
926,64,0
926,55,0
927,49,0
928,47,0
929,52,0
930,57,0
931,60,0
931,61,0
932,63,0
933,64,0
934,63,0
935,63,0
936,58,0
936,67,0
937,71,0
938,71,0
939,69,0
940,66,0
940,63,0
941,61,0
942,61,0
943,62,0
945,63,0
946,61,0
946,61,0
947,51,0
948,48,0
949,48,0
950,54,0
951,58,0
951,61,0
952,62,0
953,62,0
954,64,0
955,64,0
956,61,0
956,63,0
957,71,0
958,73,0
959,69,0
960,67,0
961,64,0
961,62,0
962,61,0
963,61,0
964,62,0
965,62,0
966,64,0
966,54,0
967,48,0
968,48,0
969,53,0
970,56,0
971,59,0
971,62,0
972,62,0
973,64,0
974,64,0
975,64,0
976,58,0
976,67,0
977,72,0
978,72,0
979,67,0
980,66,0
981,63,0
981,61,0
982,61,0
983,61,0
984,62,0
985,62,0
985,59,0
986,49,0
988,47,0
989,50,0
990,55,0
991,60,0
991,60,0
992,63,0
993,64,0
994,63,0
995,64,0
996,61,0
996,64,0
997,70,0
998,72,0
999,71,0
1000,66,0
1001,63,0
1002,62,0
1003,61,0
1003,61,0
1004,62,0
1005,62,0
1006,56,0
1007,48,0
1008,47,0
1009,54,0
1010,58,0
1011,60,0
1012,64,0
1013,63,0
1013,64,0
1014,62,0
1015,59,0
1016,67,0
1017,72,0
1018,72,0
1019,69,0
1020,64,0
1021,62,0
1022,60,0
1023,61,0
1024,62,0
1024,62,0
1025,62,0
1026,50,0
1027,47,0
1028,50,0
1029,57,0
1031,59,0
1032,62,0
1033,64,0
1034,64,0
1035,64,0
1035,61,0
1036,64,0
1037,70,0
1038,72,0
1039,69,0
1040,67,0
1041,62,0
1042,61,0
1043,60,0
1044,61,0
1045,61,0
1046,64,0
1046,53,0
1047,48,0
1048,48,0
1049,56,0
1050,58,0
1051,61,0
1052,62,0
1053,64,0
1054,64,0
1055,64,0
1056,60,0
1056,68,0
1057,71,0
1058,69,0
1059,66,0
1060,62,0
1061,61,0
1062,61,0
1063,61,0
1064,61,0
1065,62,0
1066,55,0
1067,49,0
1067,48,0
1068,54,0
1069,58,0
1070,61,0
1071,63,0
1073,64,0
1074,64,0
1075,63,0
1076,57,0
1077,65,0
1078,70,0
1078,70,0
1079,66,0
1080,64,0
1081,62,0
1082,61,0
1083,62,0
1084,62,0
1085,62,0
1086,61,0
1087,51,0
1088,47,0
1089,39,0
1089,44,0
1090,51,0
1091,57,0
1092,59,0
1093,60,0
1094,60,0
1095,59,0
1096,61,0
1097,67,0
1098,69,0
1099,66,0
1099,62,0
1100,60,0
1101,59,0
1102,58,0
1103,59,0
1104,58,0
1105,62,0
1106,50,0
1107,44,0
1108,46,0
1109,53,0
1110,56,0
1110,57,0
1111,59,0
1112,60,0
1113,60,0
1114,61,0
1116,57,0
1117,65,0
1118,69,0
1119,67,0
1120,62,0
1121,59,0
1121,58,0
1122,58,0
1123,58,0
1124,58,0
1125,58,0
1126,52,0
1127,44,0
1128,44,0
1129,50,0
1130,55,0
1131,56,0
1132,59,0
1132,59,0
1133,59,0
1134,60,0
1135,55,0
1136,64,0
1137,68,0
1138,68,0
1139,64,0
1140,60,0
1141,58,0
1142,57,0
1142,57,0
1143,58,0
1144,58,0
1145,58,0
1146,47,0
1147,43,0
1148,46,0
1149,54,0
1150,57,0
1151,58,0
1152,59,0
1153,60,0
1153,59,0
1154,58,0
1155,60,0
1156,66,0
1157,70,0
1159,66,0
1160,61,0
1161,58,0
1162,57,0
1163,57,0
1164,57,0
1164,57,0
1165,61,0
1166,49,0
1167,43,0
1168,45,0
1169,52,0
1170,54,0
1171,56,0
1172,58,0
1173,60,0
1174,60,0
1175,59,0
1175,56,0
1176,64,0
1177,67,0
1178,65,0
1179,62,0
1180,58,0
1181,57,0
1182,57,0
1183,57,0
1184,56,0
1185,58,0
1185,51,0
1186,44,0
1187,43,0
1188,49,0
1189,53,0
1190,57,0
1191,58,0
1192,58,0
1193,58,0
1194,59,0
1195,54,0
1196,63,0
1196,68,0
1197,67,0
1198,63,0
1199,60,0
1201,57,0
1202,56,0
1203,57,0
1204,58,0
1205,57,0
1206,57,0
1207,46,0
1207,43,0
1208,47,0
1209,52,0
1210,55,0
1211,57,0
1212,59,0
1213,59,0
1214,59,0
1215,56,0
1216,59,0
1217,65,0
1218,68,0
1218,64,0
1219,61,0
1220,58,0
1221,57,0
1222,56,0
1223,56,0
1224,57,0
1225,60,0
1226,48,0
1227,43,0
1228,45,0
1228,51,0
1229,53,0
1230,56,0
1231,58,0
1232,59,0
1233,59,0
1234,59,0
1235,56,0
1236,64,0
1237,67,0
1238,65,0
1239,62,0
1239,59,0
1240,57,0
1241,57,0
1242,57,0
1244,57,0
1245,58,0
1246,51,0
1247,43,0
1248,43,0
1249,49,0
1250,53,0
1250,55,0
1251,57,0
1252,58,0
1253,59,0
1254,58,0
1255,54,0
1256,63,0
1257,67,0
1258,67,0
1259,62,0
1260,59,0
1261,58,0
1261,56,0
1262,57,0
1263,58,0
1264,57,0
1265,56,0
1266,45,0
1267,42,0
1268,45,0
1269,51,0
1270,54,0
1271,57,0
1271,58,0
1272,59,0
1273,58,0
1274,56,0
1275,58,0
1276,65,0
1277,67,0
1278,64,0
1279,60,0
1280,58,0
1281,57,0
1282,57,0
1282,57,0
1283,56,0
1284,60,0
1285,48,0
1287,43,0
1288,44,0
1289,51,0
1290,54,0
1291,56,0
1292,57,0
1293,59,0
1293,59,0
1294,59,0
1295,54,0
1296,64,0
1297,67,0
1298,64,0
1299,62,0
1300,59,0
1301,57,0
1302,57,0
1303,56,0
1304,57,0
1304,58,0
1305,50,0
1306,43,0
1307,42,0
1308,48,0
1309,53,0
1310,55,0
1311,57,0
1312,57,0
1313,58,0
1314,58,0
1314,54,0
1315,62,0
1316,68,0
1317,67,0
1318,64,0
1319,59,0
1320,56,0
1321,55,0
1322,56,0
1323,57,0
1324,57,0
1325,56,0
1325,45,0
1326,42,0
1327,47,0
1329,52,0
1330,56,0
1331,58,0
1332,58,0
1333,59,0
1334,58,0
1335,56,0
1336,59,0
1336,66,0
1337,68,0
1338,65,0
1339,60,0
1340,57,0
1341,56,0
1342,55,0
1343,56,0
1344,56,0
1345,60,0
1346,48,0
1347,43,0
1347,43,0
1348,50,0
1349,54,0
1350,56,0
1351,58,0
1352,59,0
1353,59,0
1354,59,0
1355,56,0
1356,65,0
1357,67,0
1357,64,0
1358,60,0
1359,58,0
1360,56,0
1361,57,0
1362,57,0
1363,56,0
1364,58,0
1365,50,0
1366,43,0
1367,43,0
1368,50,0
1368,54,0
1369,56,0
1370,58,0
1372,58,0
1373,58,0
1374,58,0
1375,53,0
1376,62,0
1377,67,0
1378,66,0
1379,62,0
1379,60,0
1380,57,0
1381,56,0
1382,57,0
1383,57,0
1384,57,0
1385,56,0
1386,45,0
1387,42,0
1388,46,0
1389,51,0
1390,56,0
1390,57,0
1391,59,0
1392,58,0
1393,59,0
1394,56,0
1395,59,0
1396,65,0
1397,68,0
1398,64,0
1399,60,0
1400,57,0
1400,56,0
1401,55,0
1402,56,0
1403,57,0
1404,61,0
1405,48,0
1406,44,0
1407,43,0
1408,49,0
1409,54,0
1410,56,0
1411,57,0
1411,59,0
1412,59,0
1413,59,0
1415,56,0
1416,64,0
1417,68,0
1418,64,0
1419,60,0
1420,59,0
1421,57,0
1422,56,0
1422,57,0
1423,57,0
1424,58,0
1425,50,0
1426,44,0
1427,43,0
1428,49,0
1429,53,0
1430,56,0
1431,58,0
1432,57,0
1433,58,0
1433,58,0
1434,54,0
1435,61,0
1436,67,0
1437,66,0
1438,62,0
1439,59,0
1440,56,0
1441,56,0
1442,56,0
1443,57,0
1443,57,0
1444,56,0
1445,46,0
1446,42,0
1447,45,0
1448,52,0
1449,56,0
1450,57,0
1451,59,0
1452,59,0
1453,58,0
1454,56,0
1454,59,0
1455,65,0
1457,66,0
1458,64,0
1459,61,0
1460,58,0
1461,55,0
1462,55,0
1463,57,0
1464,56,0
1465,60,0
1465,48,0
1466,44,0
1467,44,0
1468,52,0
1469,54,0
1470,56,0
1471,58,0
1472,59,0
1473,59,0
1474,59,0
1475,56,0
1476,66,0
1476,68,0
1477,65,0
1478,60,0
1479,59,0
1480,57,0
1481,57,0
1482,57,0
1483,57,0
1484,58,0
1485,50,0
1486,43,0
1486,43,0
1487,49,0
1488,53,0
1489,56,0
1490,57,0
1491,58,0
1492,58,0
1493,58,0
1494,54,0
1495,62,0
1496,68,0
1497,67,0
1497,62,0
1498,58,0
1500,56,0
1501,56,0
1502,57,0
1503,58,0
1504,57,0
1505,56,0
1506,44,0
1507,42,0
1508,45,0
1508,52,0
1509,54,0
1510,57,0
1511,58,0
1512,59,0
1513,57,0
1514,55,0
1515,59,0
1516,66,0
1517,67,0
1518,64,0
1519,61,0
1519,58,0
1520,55,0
1521,56,0
1522,57,0
1523,56,0
1524,61,0
1525,48,0
1526,43,0
1527,44,0
1528,49,0
1529,52,0
1529,55,0
1530,57,0
1531,59,0
1532,58,0
1533,59,0
1534,55,0
1535,63,0
1536,66,0
1537,64,0
1538,61,0
1539,58,0
1540,57,0
1540,56,0
1541,56,0
1543,57,0
1544,58,0
1545,50,0
1546,43,0
1547,42,0
1548,47,0
1549,51,0
1550,53,0
1551,57,0
1551,57,0
1552,57,0
1553,58,0
1554,54,0
1555,62,0
1556,67,0
1557,66,0
1558,61,0
1559,59,0
1560,57,0
1561,55,0
1562,57,0
1562,57,0
1563,57,0
1564,55,0
1565,45,0
1566,38,0
1567,39,0
1568,48,0
1569,50,0
1570,55,0
1571,57,0
1572,58,0
1572,58,0
1573,56,0
1574,58,0
1575,65,0
1576,66,0
1577,65,0
1578,61,0
1579,57,0
1580,55,0
1581,56,0
1582,56,0
1583,56,0
1583,61,0
1585,48,0
1586,38,0
1587,37,0
1588,45,0
1589,46,0
1590,51,0
1591,55,0
1592,57,0
1593,57,0
1594,58,0
1594,54,0
1595,65,0
1596,66,0
1597,64,0
1598,57,0
1599,57,0
1600,56,0
1601,56,0
1602,57,0
1603,57,0
1604,54,0
1605,45,0
1605,38,0
1606,36,0
1607,37,0
1608,45,0
1609,49,0
1610,53,0
1611,55,0
1612,56,0
1613,57,0
1614,52,0
1615,59,0
1615,65,0
1616,65,0
1617,61,0
1618,57,0
1619,54,0
1620,49,0
1621,52,0
1622,49,0
1623,49,0
1624,50,0
1625,36,0
1626,30,0
1626,33,0
1628,39,0
1629,42,0
1630,48,0
1631,48,0
1632,54,0
1633,56,0
1634,52,0
1635,54,0
1636,63,0
1637,65,0
1637,61,0
1638,58,0
1639,54,0
1640,49,0
1641,50,0
1642,47,0
1643,50,0
1644,51,0
1645,37,0
1646,31,0
1647,31,0
1648,42,0
1648,39,0
1649,41,0
1650,48,0
1651,48,0
1652,48,0
1653,52,0
1654,47,0
1655,59,0
1656,62,0
1657,58,0
1658,53,0
1658,50,0
1659,46,0
1660,46,0
1661,47,0
1662,53,0
1663,48,0
1664,40,0
1665,30,0
1666,30,0
1667,35,0
1668,43,0
1669,42,0
1669,44,0
1671,47,0
1672,53,0
1673,55,0
1674,47,0
1675,56,0
1676,61,0
1677,62,0
1678,56,0
1679,49,0
1680,50,0
1680,43,0
1681,44,0
1682,45,0
1683,46,0
1684,47,0
1685,32,0
1686,27,0
1687,31,0
1688,37,0
1689,39,0
1690,42,0
1691,45,0
1691,45,0
1692,46,0
1693,46,0
1694,49,0
1695,57,0
1696,57,0
1697,54,0
1698,50,0
1699,46,0
1700,43,0
1701,42,0
1701,43,0
1702,43,0
1703,47,0
1704,37,0
1705,29,0
1706,30,0
1707,34,0
1708,37,0
1709,40,0
1710,42,0
1711,46,0
1713,47,0
1713,45,0
1714,42,0
1715,54,0
1716,59,0
1717,57,0
1718,51,0
1719,46,0
1720,44,0
1721,42,0
1722,42,0
1723,43,0
1723,44,0
1724,37,0
1725,29,0
1726,31,0
1727,34,0
1728,38,0
1729,39,0
1730,42,0
1731,42,0
1732,43,0
1733,45,0
1734,40,0
1734,48,0
1735,55,0
1736,54,0
1737,52,0
1738,45,0
1739,43,0
1740,42,0
1741,42,0
1742,42,0
1743,41,0
1744,42,0
1744,30,0
1745,26,0
1746,28,0
1747,37,0
1748,47,0
1749,57,0
1750,60,0
1751,61,0
1752,62,0
1753,60,0
1754,63,0
1756,70,0
1756,71,0
1757,69,0
1758,64,0
1759,62,0
1760,60,0
1761,60,0
1762,60,0
1763,60,0
1764,64,0
1765,51,0
1766,47,0
1766,48,0
1767,55,0
1768,59,0
1769,60,0
1770,61,0
1771,63,0
1772,63,0
1773,63,0
1774,60,0
1775,68,0
1776,71,0
1777,69,0
1777,66,0
1778,64,0
1779,62,0
1780,61,0
1781,62,0
1782,62,0
1783,63,0
1784,55,0
1785,48,0
1786,48,0
1787,55,0
1787,59,0
1788,61,0
1789,63,0
1790,63,0
1791,64,0
1792,64,0
1793,59,0
1794,69,0
1795,73,0
1796,72,0
1797,67,0
1799,64,0
1799,62,0
1800,61,0
1801,62,0
1802,62,0
1803,62,0
1804,60,0
1805,51,0
1806,48,0
1807,52,0
1808,58,0
1809,61,0
1810,63,0
1810,64,0
1811,65,0
1812,64,0
1813,62,0
1814,65,0
1815,72,0
1816,72,0
1817,69,0
1818,66,0
1819,64,0
1820,62,0
1820,62,0
1821,62,0
1822,62,0
1823,65,0
1824,53,0
1825,48,0
1826,51,0
1827,57,0
1828,60,0
1829,63,0
1830,64,0
1831,64,0
1831,64,0
1832,64,0
1833,62,0
1834,70,0
1835,73,0
1836,70,0
1837,66,0
1838,63,0
1839,62,0
1841,62,0
1842,62,0
1842,62,0
1843,64,0
1844,56,0
1845,50,0
1846,49,0
1847,56,0
1848,59,0
1849,61,0
1850,63,0
1851,64,0
1852,64,0
1853,64,0
1853,59,0
1854,68,0
1855,73,0
1856,72,0
1857,67,0
1858,64,0
1859,62,0
1860,61,0
1861,62,0
1862,62,0
1863,62,0
1863,60,0
1864,50,0
1865,48,0
1866,53,0
1867,58,0
1868,61,0
1869,63,0
1870,64,0
1871,64,0
1872,64,0
1873,61,0
1874,65,0
1874,71,0
1875,72,0
1876,70,0
1877,65,0
1878,62,0
1879,61,0
1880,61,0
1881,62,0
1882,62,0
1884,66,0
1885,53,0
1885,48,0
1886,50,0
1887,57,0
1888,59,0
1889,61,0
1890,64,0
1891,64,0
1892,64,0
1893,64,0
1894,61,0
1895,70,0
1896,73,0
1896,69,0
1897,66,0
1898,64,0
1899,62,0
1900,61,0
1901,61,0
1902,62,0
1903,64,0
1904,55,0
1905,50,0
1906,48,0
1906,54,0
1907,59,0
1908,61,0
1909,63,0
1910,64,0
1911,64,0
1912,64,0
1913,58,0
1914,68,0
1915,73,0
1916,72,0
1917,68,0
1917,65,0
1918,62,0
1919,61,0
1920,61,0
1921,62,0
1922,61,0
1923,60,0
1924,49,0
1925,47,0
1927,51,0
1928,57,0
1928,60,0
1929,62,0
1930,63,0
1931,64,0
1932,64,0
1933,61,0
1934,64,0
1935,70,0
1936,72,0
1937,68,0
1938,61,0
1939,60,0
1939,58,0
1940,59,0
1941,61,0
1942,62,0
1943,65,0
1944,53,0
1945,48,0
1946,49,0
1947,56,0
1948,59,0
1949,62,0
1949,64,0
1950,0,1
1951,45,0
1952,51,0
1953,51,0
1954,63,0
1955,67,0
1956,64,0
1957,62,0
1958,58,0
1959,57,0
1959,56,0
1960,58,0
1961,58,0
1962,59,0
1963,52,0
1964,45,0
1965,44,0
1966,49,0
1967,54,0
1969,56,0
1970,59,0
1970,60,0
1971,59,0
1972,60,0
1973,55,0
1974,63,0
1975,67,0
1976,67,0
1977,64,0
1978,60,0
1979,58,0
1980,57,0
1981,57,0
1981,58,0
1982,58,0
1983,57,0
1984,46,0
1985,43,0
1986,47,0
1987,53,0
1988,54,0
1989,57,0
1990,58,0
1991,59,0
1991,59,0
1992,57,0
1993,60,0
1994,66,0
1995,67,0
1996,66,0
1997,61,0
1998,59,0
1999,56,0
2000,57,0
2001,57,0
2002,57,0
2002,60,0
2003,48,0
2004,43,0
2005,44,0
2006,51,0
2007,55,0
2008,57,0
2009,58,0
2010,58,0
2012,58,0
2013,58,0
2013,55,0
2014,65,0
2015,68,0
2016,65,0
2017,60,0
2018,58,0
2019,56,0
2020,55,0
2021,56,0
2022,57,0
2023,58,0
2024,51,0
2024,43,0
2025,42,0
2026,48,0
2027,51,0
2028,56,0
2029,57,0
2030,58,0
2031,58,0
2032,58,0
2033,53,0
2034,62,0
2034,66,0
2035,66,0
2036,63,0
2037,59,0
2038,57,0
2039,56,0
2040,56,0
2041,56,0
2042,56,0
2043,56,0
2044,45,0
2045,42,0
2045,44,0
2046,50,0
2047,52,0
2048,55,0
2049,57,0
2050,58,0
2051,59,0
2052,57,0
2053,60,0
2055,65,0
2056,66,0
2056,64,0
2057,59,0
2058,58,0
2059,56,0
2060,56,0
2061,57,0
2062,56,0
2063,59,0
2064,47,0
2065,41,0
2066,42,0
2067,49,0
2067,52,0
2068,55,0
2069,57,0
2070,56,0
2071,57,0
2072,57,0
2073,54,0
2074,64,0
2075,68,0
2076,64,0
2077,60,0
2077,58,0
2078,56,0
2079,54,0
2080,56,0
2081,57,0
2082,58,0
2083,51,0
2084,44,0
2085,36,0
2086,40,0
2087,49,0
2088,52,0
2088,56,0
2089,57,0
2090,57,0
2091,57,0
2092,53,0
2093,60,0
2094,64,0
2095,66,0
2097,62,0
2098,58,0
2099,56,0
2099,55,0
2100,55,0
2101,55,0
2102,56,0
2103,55,0
2104,43,0
2105,36,0
2106,40,0
2107,42,0
2108,45,0
2109,53,0
2110,56,0
2110,56,0
2111,58,0
2112,56,0
2113,57,0
2114,64,0
2115,66,0
2116,62,0
2117,57,0
2118,56,0
2119,56,0
2120,56,0
2120,56,0
2121,56,0
2122,58,0
2123,45,0
2124,35,0
2125,37,0
2126,44,0
2127,44,0
2128,47,0
2129,54,0
2130,55,0
2131,57,0
2131,56,0
2132,52,0
2133,62,0
2134,66,0
2135,64,0
2136,56,0
2137,55,0
2138,54,0
2140,53,0
2141,48,0
2142,53,0
2142,51,0
2143,48,0
2144,35,0
2145,31,0
2146,38,0
2147,41,0
2148,43,0
2149,47,0
2150,54,0
2151,56,0
2152,55,0
2153,52,0
2153,54,0
2154,62,0
2155,64,0
2156,60,0
2157,55,0
2158,53,0
2159,45,0
2160,49,0
2161,46,0
2162,45,0
2163,49,0
2163,34,0
2164,32,0
2165,33,0
2166,40,0
2167,41,0
2168,44,0
2169,46,0
2170,51,0
2171,54,0
2172,53,0
2173,49,0
2174,60,0
2174,63,0
2175,55,0
2176,55,0
2177,50,0
2178,44,0
2179,47,0
2180,44,0
2181,44,0
2183,46,0
2184,35,0
2185,29,0
2185,28,0
2186,35,0
2187,40,0
2188,42,0
2189,44,0
2190,47,0
2191,45,0
2192,47,0
2193,43,0
2194,53,0
2195,58,0
2196,55,0
2196,54,0
2197,48,0
2198,44,0
2199,43,0
2200,43,0
2201,44,0
2202,44,0
2203,38,0
2204,30,0
2205,28,0
2206,32,0
2206,37,0
2207,41,0
2208,45,0
2209,44,0
2210,43,0
2211,44,0
2212,41,0
2213,51,0
2214,58,0
2215,56,0
2216,52,0
2217,48,0
2217,45,0
2218,43,0
2219,42,0
2220,42,0
2221,42,0
2222,45,0
2223,31,0
2225,27,0
2226,30,0
2227,36,0
2228,38,0
2228,41,0
2229,41,0
2230,43,0
2231,46,0
2232,52,0
2233,59,0
2234,68,0
2235,70,0
2236,68,0
2237,64,0
2238,62,0
2239,61,0
2239,61,0
2240,61,0
2241,60,0
2242,64,0
2243,51,0
2244,46,0
2245,48,0
2246,55,0
2247,58,0
2248,60,0
2249,61,0
2249,62,0
2250,62,0
2251,62,0
2252,60,0
2253,69,0
2254,71,0
2255,69,0
2256,66,0
2257,62,0
2258,60,0
2259,60,0
2260,61,0
2260,62,0
2261,62,0
2262,56,0
2263,48,0
2264,47,0
2265,53,0
2266,57,0
2268,61,0
2269,63,0
2270,64,0
2271,64,0
2271,64,0
2272,58,0
2273,66,0
2274,71,0
2275,71,0
2276,68,0
2277,66,0
2278,62,0
2279,61,0
2280,60,0
2281,60,0
2282,60,0
2282,60,0
2283,51,0
2284,48,0
2285,52,0
2286,57,0
2287,60,0
2288,61,0
2289,62,0
2290,64,0
2291,64,0
2292,62,0
2292,65,0
2293,71,0
2294,72,0
2295,68,0
2296,65,0
2297,62,0
2298,61,0
2299,62,0
2300,61,0
2301,62,0
2302,64,0
2303,52,0
2303,47,0
2304,49,0
2305,55,0
2306,59,0
2307,62,0
2308,62,0
2309,63,0
2311,63,0
2312,63,0
2313,60,0
2314,71,0
2314,72,0
2315,70,0
2316,66,0
2317,62,0
2318,61,0
2319,60,0
2320,61,0
2321,61,0
2322,63,0
2323,55,0
2324,48,0
2325,47,0
2325,54,0
2326,57,0
2327,61,0
2328,62,0
2329,63,0
2330,64,0
2331,64,0
2332,58,0
2333,66,0
2334,71,0
2335,71,0
2335,67,0
2336,64,0
2337,62,0
2338,61,0
2339,60,0
2340,60,0
2341,61,0
2342,60,0
2343,49,0
2344,47,0
2345,51,0
2346,58,0
2346,58,0
2347,60,0
2348,62,0
2349,62,0
2350,64,0
2351,61,0
2353,64,0
2354,70,0
2355,72,0
2356,68,0
2357,65,0
2357,62,0
2358,61,0
2359,61,0
2360,62,0
2361,61,0
2362,64,0
2363,51,0
2364,46,0
2365,48,0
2366,56,0
2367,58,0
2368,60,0
2368,61,0
2369,62,0
2370,62,0
2371,62,0
2372,58,0
2373,68,0
2374,71,0
2375,68,0
2376,65,0
2377,62,0
2378,60,0
2378,59,0
2379,61,0
2380,61,0
2381,62,0
2382,55,0
2383,48,0
2384,46,0
2385,52,0
2386,57,0
2387,59,0
2388,62,0
2389,62,0
2389,63,0
2390,63,0
2391,57,0
2392,65,0
2393,70,0
2394,70,0
2396,66,0
2397,63,0
2398,61,0
2399,59,0
2400,60,0
2400,61,0
2401,60,0
2402,60,0
2403,50,0
2404,47,0
2405,50,0
2406,55,0
2407,58,0
2408,60,0
2409,62,0
2410,63,0
2411,63,0
2411,61,0
2412,63,0
2413,69,0
2414,70,0
2415,67,0
2416,64,0
2417,61,0
2418,60,0
2419,60,0
2420,60,0
2421,57,0
2421,60,0
2422,49,0
2423,43,0
2424,46,0
2425,53,0
2426,57,0
2427,60,0
2428,62,0
2429,62,0
2430,62,0
2431,62,0
2432,61,0
2432,0,1
2433,53,0
2434,56,0
2435,56,0
2436,56,0
2437,54,0
2439,55,0
2440,54,0
2441,56,0
2442,56,0
2442,52,0
2443,45,0
2444,43,0
2445,48,0
2446,53,0
2447,55,0
2448,56,0
2449,58,0
2450,59,0
2451,58,0
2452,55,0
2453,61,0
2453,67,0
2454,66,0
2455,62,0
2456,59,0
2457,58,0
2458,56,0
2459,57,0
2460,58,0
2461,56,0
2462,57,0
2463,45,0
2463,43,0
2464,46,0
2465,53,0
2466,55,0
2467,57,0
2468,58,0
2469,58,0
2470,58,0
2471,57,0
2472,57,0
2473,66,0
2474,68,0
2474,65,0
2475,60,0
2476,58,0
2477,55,0
2478,55,0
2479,56,0
2481,57,0
2482,60,0
2483,48,0
2484,43,0
2485,44,0
2485,50,0
2486,54,0
2487,55,0
2488,57,0
2489,58,0
2490,59,0
2491,57,0
2492,53,0
2493,63,0
2494,66,0
2495,65,0
2496,61,0
2496,58,0
2497,56,0
2498,56,0
2499,56,0
2500,56,0
2501,57,0
2502,52,0
2503,44,0
2504,42,0
2505,47,0
2506,50,0
2506,54,0
2507,56,0
2508,56,0
2509,58,0
2510,58,0
2511,53,0
2512,62,0
2513,66,0
2514,66,0
2515,62,0
2516,58,0
2517,57,0
2517,56,0
2518,56,0
2519,56,0
2520,56,0
2521,56,0
2522,44,0
2524,41,0
2525,42,0
2526,48,0
2527,49,0
2528,55,0
2528,57,0
2529,57,0
2530,57,0
2531,56,0
2532,57,0
2533,64,0
2534,66,0
2535,64,0
2536,59,0
2537,56,0
2538,54,0
2539,55,0
2539,56,0
2540,56,0
2541,60,0
2542,48,0
2543,41,0
2544,41,0
2545,42,0
2546,45,0
2547,52,0
2548,55,0
2549,57,0
2549,58,0
2550,58,0
2551,53,0
2552,63,0
2553,66,0
2554,64,0
2555,61,0
2556,58,0
2557,56,0
2558,55,0
2559,55,0
2560,56,0
2560,56,0
2561,51,0
2562,41,0
2563,38,0
2564,44,0
2565,47,0
2567,46,0
2568,53,0
2569,55,0
2570,57,0
2571,57,0
2571,53,0
2572,59,0
2573,65,0
2574,64,0
2575,62,0
2576,56,0
2577,54,0
2578,55,0
2579,53,0
2580,53,0
2581,52,0
2582,54,0
2582,40,0
2583,33,0
2584,34,0
2585,40,0
2586,44,0
2587,46,0
2588,52,0
2589,53,0
2590,55,0
2591,55,0
2592,54,0
2592,61,0
2593,64,0
2594,62,0
2595,53,0
2596,52,0
2597,51,0
2598,53,0
2599,53,0
2600,54,0
2601,52,0
2602,39,0
2603,33,0
2603,32,0
2604,36,0
2605,41,0
2606,43,0
2607,46,0
2609,46,0
2610,50,0
2611,47,0
2612,42,0
2613,55,0
2614,60,0
2615,56,0
2615,55,0
2616,49,0
2617,47,0
2618,47,0
2619,44,0
2620,44,0
2621,45,0
2622,43,0
2623,32,0
2624,30,0
2625,34,0
2625,38,0
2626,40,0
2627,42,0
2628,46,0
2629,44,0
2630,44,0
2631,42,0
2632,48,0
2633,54,0
2634,58,0
2635,54,0
2636,50,0
2636,47,0
2637,46,0
2638,42,0
2639,43,0
2640,45,0
2641,46,0
2642,31,0
2643,26,0
2644,31,0
2645,36,0
2646,39,0
2646,41,0
2647,42,0
2648,41,0
2649,42,0
2650,41,0
2652,42,0
2653,54,0
2654,55,0
2655,52,0
2656,51,0
2657,43,0
2658,42,0
2658,41,0
2659,42,0
2660,42,0
2661,45,0
2662,34,0
2663,27,0
2664,27,0
2665,33,0
2666,37,0
2667,39,0
2668,41,0
2668,42,0
2669,42,0
2670,41,0
2671,36,0
2672,47,0
2673,50,0
2674,49,0
2675,49,0
2676,49,0
2677,48,0
2678,48,0
2679,52,0
2679,55,0
2680,58,0
2681,55,0
2682,48,0
2683,47,0
2684,53,0
2685,56,0
2686,58,0
2687,60,0
2688,61,0
2689,61,0
2689,61,0
2690,57,0
2691,64,0
2692,70,0
2693,69,0
2695,65,0
2696,63,0
2697,60,0
2698,60,0
2699,59,0
2700,60,0
2701,60,0
2701,60,0
2702,48,0
2703,45,0
2704,49,0
2705,55,0
2706,58,0
2707,60,0
2708,61,0
2709,61,0
2710,61,0
2711,61,0
2711,62,0
2712,69,0
2713,70,0
2714,67,0
2715,63,0
2716,60,0
2717,59,0
2718,58,0
2719,59,0
2720,60,0
2721,63,0
2722,52,0
2722,45,0
2723,46,0
2724,53,0
2725,57,0
2726,60,0
2727,61,0
2728,62,0
2729,61,0
2730,61,0
2731,58,0
2732,66,0
2732,69,0
2733,68,0
2734,65,0
2735,62,0
2737,60,0
2738,60,0
2739,59,0
2740,60,0
2741,59,0
2742,56,0
2743,48,0
2744,46,0
2744,52,0
2745,57,0
2746,58,0
2747,60,0
2748,60,0
2749,62,0
2750,63,0
2751,59,0
2752,65,0
2753,69,0
2754,69,0
2754,65,0
2755,61,0
2756,60,0
2757,60,0
2758,60,0
2759,60,0
2760,59,0
2761,60,0
2762,49,0
2763,45,0
2764,48,0
2765,55,0
2765,58,0
2766,60,0
2767,61,0
2768,61,0
2769,61,0
2770,60,0
2771,61,0
2772,69,0
2773,70,0
2774,67,0
2775,64,0
2775,60,0
2776,59,0
2777,59,0
2778,59,0
2780,60,0
2781,63,0
2782,52,0
2783,46,0
2784,46,0
2785,53,0
2786,56,0
2787,59,0
2787,61,0
2788,61,0
2789,62,0
2790,62,0
2791,56,0
2792,66,0
2793,69,0
2794,69,0
2795,65,0
2796,61,0
2797,59,0
2797,59,0
2798,59,0
2799,60,0
2800,60,0
2801,55,0
2802,48,0
2803,45,0
2804,51,0
2805,56,0
2806,57,0
2807,60,0
2808,61,0
2808,62,0
2809,62,0
2810,57,0
2811,65,0
2812,70,0
2813,70,0
2814,66,0
2815,63,0
2816,60,0
2817,59,0
2818,59,0
2818,60,0
2819,60,0
2820,61,0
2821,49,0
2823,45,0
2824,49,0
2825,55,0
2826,58,0
2827,60,0
2828,61,0
2829,61,0
2830,61,0
2830,59,0
2831,61,0
2832,68,0
2833,69,0
2834,68,0
2835,64,0
2836,61,0
2837,59,0
2838,59,0
2839,60,0
2840,60,0
2840,63,0
2841,52,0
2842,46,0
2843,47,0
2844,54,0
2845,58,0
2846,59,0
2847,60,0
2848,61,0
2849,61,0
2850,61,0
2851,56,0
2851,66,0
2852,70,0
2853,68,0
2854,65,0
2855,61,0
2856,60,0
2857,60,0
2858,60,0
2859,61,0
2860,61,0
2861,56,0
2861,47,0
2862,45,0
2863,51,0
2865,55,0
2866,58,0
2867,60,0
2868,61,0
2869,62,0
2870,62,0
2871,57,0
2872,64,0
2873,70,0
2873,70,0
2874,66,0
2875,62,0
2876,60,0
2877,59,0
2878,59,0
2879,60,0
2880,59,0
2881,60,0
2882,49,0
2883,47,0
2883,49,0
2884,54,0
2885,58,0
2886,60,0
2887,62,0
2888,61,0
2889,62,0
2890,62,0
2891,61,0
2892,69,0
2893,70,0
2894,67,0
2894,64,0
2895,61,0
2896,59,0
2897,59,0
2898,60,0
2899,60,0
2900,64,0
2901,52,0
2902,47,0
2903,47,0
2904,52,0
2904,58,0
2905,60,0
2906,62,0
2908,62,0
2909,62,0
2910,61,0
2911,57,0
2912,67,0
2913,69,0
2914,69,0
2915,65,0
2916,62,0
2916,60,0
2917,59,0
2918,60,0
2919,60,0
2920,61,0
2921,56,0
2922,47,0
2923,46,0
2924,52,0
2925,56,0
2926,59,0
2926,60,0
2927,61,0
2928,61,0
2929,62,0
2930,58,0
2931,64,0
2932,70,0
2933,70,0
2934,66,0
2935,63,0
2936,61,0
2937,59,0
2937,60,0
2938,60,0
2939,60,0
2940,60,0
2941,49,0
2942,45,0
2943,49,0
2944,55,0
2945,58,0
2946,60,0
2947,61,0
2947,62,0
2948,62,0
2949,62,0
2951,61,0
2952,69,0
2953,71,0
2954,67,0
2955,64,0
2956,61,0
2957,60,0
2958,59,0
2959,59,0
2959,60,0
2960,63,0
2961,52,0
2962,46,0
2963,47,0
2964,54,0
2965,56,0
2966,59,0
2967,61,0
2968,62,0
2969,62,0
2969,62,0
2970,57,0
2971,66,0
2972,70,0
2973,68,0
2974,64,0
2975,62,0
2976,60,0
2977,59,0
2978,60,0
2979,60,0
2980,61,0
2980,56,0
2981,48,0
2982,46,0
2983,51,0
2984,56,0
2985,59,0
2986,61,0
2987,61,0
2988,61,0
2989,61,0
2990,58,0
2990,65,0
2991,70,0
2993,71,0
2994,67,0
2995,64,0
2996,61,0
2997,60,0
2998,60,0
2999,61,0
3000,60,0
3001,61,0
3002,48,0
3002,45,0
3003,49,0
3004,55,0
3005,57,0
3006,60,0
3007,62,0
3008,61,0
3009,61,0
3010,61,0
3011,62,0
3012,68,0
3012,71,0
3013,67,0
3014,64,0
3015,61,0
3016,59,0
3017,59,0
3018,59,0
3019,60,0
3020,62,0
3021,51,0
3022,47,0
3023,47,0
3023,54,0
3024,57,0
3025,60,0
3026,62,0
3027,62,0
3028,63,0
3029,62,0
3030,57,0
3031,67,0
3032,70,0
3033,68,0
3033,64,0
3034,61,0
3036,59,0
3037,59,0
3038,59,0
3039,60,0
3040,60,0
3041,56,0
3042,48,0
3043,46,0
3044,52,0
3045,56,0
3045,58,0
3046,61,0
3047,61,0
3048,62,0
3049,62,0
3050,57,0
3051,64,0
3052,68,0
3053,70,0
3054,65,0
3055,62,0
3055,61,0
3056,60,0
3057,59,0
3058,61,0
3059,60,0
3060,60,0
3061,49,0
3062,45,0
3063,48,0
3064,56,0
3065,58,0
3066,59,0
3066,60,0
3067,61,0
3068,62,0
3069,60,0
3070,61,0
3071,69,0
3072,71,0
3073,68,0
3074,64,0
3075,61,0
3076,59,0
3076,60,0
3077,60,0
3079,60,0
3080,63,0
3081,52,0
3082,45,0
3083,45,0
3084,52,0
3085,58,0
3086,60,0
3087,62,0
3088,62,0
3088,61,0
3089,62,0
3090,57,0
3091,67,0
3092,71,0
3093,68,0
3094,65,0
3095,62,0
3096,60,0
3097,59,0
3098,58,0
3098,59,0
3099,60,0
3100,56,0
3101,48,0
3102,47,0
3103,51,0
3104,55,0
3105,58,0
3106,60,0
3107,61,0
3108,61,0
3109,62,0
3109,58,0
3110,64,0
3111,70,0
3112,69,0
3113,66,0
3114,61,0
3115,60,0
3116,60,0
3117,60,0
3118,61,0
3119,60,0
3119,60,0
3121,49,0
3122,45,0
3123,48,0
3124,55,0
3125,57,0
3126,59,0
3127,61,0
3128,60,0
3129,60,0
3130,60,0
3131,61,0
3131,68,0
3132,70,0
3133,69,0
3134,64,0
3135,60,0
3136,59,0
3137,59,0
3138,60,0
3139,60,0
3140,63,0
3141,52,0
3141,45,0
3142,46,0
3143,52,0
3144,56,0
3145,59,0
3146,61,0
3147,62,0
3148,62,0
3149,62,0
3150,56,0
3151,67,0
3152,70,0
3152,69,0
3153,65,0
3154,62,0
3155,60,0
3156,60,0
3157,59,0
3158,59,0
3159,59,0
3160,56,0
3161,47,0
3162,46,0
3162,51,0
3164,56,0
3165,58,0
3166,59,0
3167,61,0
3168,62,0
3169,62,0
3170,58,0
3171,65,0
3172,70,0
3173,69,0
3174,65,0
3174,62,0
3175,60,0
3176,60,0
3177,60,0
3178,61,0
3179,60,0
3180,60,0
3181,49,0
3182,45,0
3183,48,0
3184,56,0
3184,57,0
3185,60,0
3186,62,0
3187,61,0
3188,61,0
3189,60,0
3190,60,0
3191,68,0
3192,69,0
3193,68,0
3194,62,0
3195,61,0
3195,59,0
3196,59,0
3197,60,0
3198,60,0
3199,64,0
3200,52,0
3201,47,0
3202,46,0
3203,53,0
3204,56,0
3205,59,0
3205,61,0
3207,61,0
3208,62,0
3209,61,0
3210,57,0
3211,67,0
3212,70,0
3213,69,0
3214,65,0
3215,63,0
3216,61,0
3217,60,0
3217,60,0
3218,60,0
3219,60,0
3220,56,0
3221,48,0
3222,45,0
3223,50,0
3224,55,0
3225,57,0
3226,60,0
3227,61,0
3227,62,0
3228,62,0
3229,58,0
3230,65,0
3231,71,0
3232,70,0
3233,66,0
3234,62,0
3235,61,0
3236,60,0
3237,59,0
3238,60,0
3238,59,0
3239,60,0
3240,49,0
3241,45,0
3242,48,0
3243,55,0
3244,57,0
3245,60,0
3246,61,0
3247,62,0
3249,61,0
3249,61,0
3250,60,0
3251,68,0
3252,71,0
3253,67,0
3254,63,0
3255,60,0
3256,59,0
3257,60,0
3258,60,0
3259,61,0
3260,64,0
3260,53,0
3261,47,0
3262,46,0
3263,53,0
3264,57,0
3265,59,0
3266,62,0
3267,62,0
3268,62,0
3269,61,0
3270,56,0
3270,66,0
3271,70,0
3272,70,0
3273,66,0
3274,62,0
3275,61,0
3276,60,0
3277,59,0
3278,60,0
3279,60,0
3280,56,0
3281,48,0
3281,47,0
3282,50,0
3283,56,0
3284,58,0
3285,59,0
3286,61,0
3287,61,0
3288,62,0
3289,57,0
3290,65,0
3292,70,0
3292,70,0
3293,66,0
3294,63,0
3295,61,0
3296,59,0
3297,60,0
3298,61,0
3299,60,0
3300,61,0
3301,48,0
3302,44,0
3303,49,0
3303,54,0
3304,58,0
3305,60,0
3306,62,0
3307,61,0
3308,62,0
3309,61,0
3310,61,0
3311,69,0
3312,71,0
3313,69,0
3313,64,0
3314,60,0
3315,58,0
3316,59,0
3317,60,0
3318,60,0
3319,63,0
3320,52,0
3321,47,0
3322,46,0
3323,52,0
3324,56,0
3324,59,0
3325,61,0
3326,62,0
3327,63,0
3328,62,0
3329,56,0
3330,67,0
3331,70,0
3332,68,0
3333,65,0
3335,61,0
3335,60,0
3336,59,0
3337,60,0
3338,60,0
3339,60,0
3340,56,0
3341,48,0
3342,46,0
3343,51,0
3344,55,0
3345,58,0
3346,60,0
3346,61,0
3347,61,0
3348,62,0
3349,58,0
3350,64,0
3351,70,0
3352,70,0
3353,66,0
3354,62,0
3355,61,0
3356,60,0
3356,60,0
3357,61,0
3358,59,0
3359,61,0
3360,49,0
3361,46,0
3362,48,0
3363,57,0
3364,58,0
3365,60,0
3366,61,0
3367,61,0
3367,61,0
3368,61,0
3369,61,0
3370,69,0
3371,71,0
3372,69,0
3373,64,0
3374,61,0
3375,60,0
3377,60,0
3378,61,0
3378,61,0
3379,63,0
3380,53,0
3381,47,0
3382,46,0
3383,53,0
3384,56,0
3385,59,0
3386,61,0
3387,62,0
3388,63,0
3389,62,0
3389,57,0
3390,67,0
3391,70,0
3392,70,0
3393,66,0
3394,63,0
3395,61,0
3396,59,0
3397,59,0
3398,60,0
3399,61,0
3399,56,0
3400,48,0
3401,46,0
3402,51,0
3403,57,0
3404,59,0
3405,61,0
3406,62,0
3407,62,0
3408,63,0
3409,59,0
3410,65,0
3410,71,0
3411,71,0
3412,66,0
3413,62,0
3414,61,0
3415,60,0
3416,60,0
3417,60,0
3418,59,0
3420,60,0
3421,49,0
3421,46,0
3422,49,0
3423,56,0
3424,58,0
3425,60,0
3426,61,0
3427,62,0
3428,62,0
3429,62,0
3430,62,0
3431,69,0
3432,71,0
3432,68,0
3433,64,0
3434,62,0
3435,59,0
3436,59,0
3437,60,0
3438,60,0
3439,63,0
3440,53,0
3441,47,0
3442,46,0
3442,54,0
3443,57,0
3444,60,0
3445,63,0
3446,63,0
3447,63,0
3448,63,0
3449,57,0
3450,66,0
3451,71,0
3452,69,0
3453,67,0
3453,62,0
3454,60,0
3455,59,0
3456,59,0
3457,60,0
3458,60,0
3459,57,0
3460,49,0
3461,46,0
3463,52,0
3464,57,0
3464,59,0
3465,61,0
3466,62,0
3467,63,0
3468,62,0
3469,58,0
3470,66,0
3471,70,0
3472,70,0
3473,67,0
3474,64,0
3475,61,0
3475,60,0
3476,60,0
3477,60,0
3478,60,0
3479,61,0
3480,50,0
3481,46,0
3482,49,0
3483,56,0
3484,60,0
3485,61,0
3485,62,0
3486,62,0
3487,62,0
3488,61,0
3489,62,0
3490,70,0
3491,71,0
3492,68,0
3493,64,0
3494,61,0
3495,59,0
3496,59,0
3496,61,0
3497,61,0
3498,64,0
3499,53,0
3500,47,0
3501,46,0
3502,54,0
3503,57,0
3505,59,0
3506,62,0
3507,63,0
3507,63,0
3508,62,0
3509,57,0
3510,66,0
3511,70,0
3512,68,0
3513,65,0
3514,63,0
3515,60,0
3516,60,0
3517,60,0
3518,60,0
3518,60,0
3519,56,0
3520,48,0
3521,47,0
3522,51,0
3523,56,0
3524,58,0
3525,60,0
3526,61,0
3527,62,0
3528,62,0
3528,59,0
3529,65,0
3530,70,0
3531,70,0
3532,67,0
3533,63,0
3534,62,0
3535,60,0
3536,60,0
3537,60,0
3538,60,0
3539,62,0
3539,49,0
3540,45,0
3541,48,0
3542,56,0
3543,58,0
3544,60,0
3545,61,0
3546,61,0
3548,62,0
3549,62,0
3550,61,0
3550,68,0
3551,71,0
3552,68,0
3553,64,0
3554,61,0
3555,60,0
3556,60,0
3557,61,0
3558,61,0
3559,64,0
3560,53,0
3561,46,0
3561,46,0
3562,53,0
3563,57,0
3564,60,0
3565,62,0
3566,62,0
3567,62,0
3568,62,0
3569,57,0
3570,66,0
3571,70,0
3572,69,0
3572,66,0
3573,64,0
3574,61,0
3575,60,0
3576,60,0
3577,60,0
3578,60,0
3579,57,0
3580,48,0
3581,46,0
3582,51,0
3582,56,0
3583,58,0
3584,60,0
3585,61,0
3586,62,0
3587,62,0
3588,59,0
3589,65,0
3591,69,0
3592,70,0
3593,66,0
3594,64,0
3594,61,0
3595,60,0
3596,61,0
3597,61,0
3598,61,0
3599,62,0
3600,49,0
3601,45,0
3602,48,0
3603,55,0
3604,58,0
3604,61,0
3605,61,0
3606,62,0
3607,62,0
3608,62,0
3609,60,0
3610,70,0
3611,71,0
3612,69,0
3613,65,0
3614,62,0
3615,60,0
3615,59,0
3616,61,0
3617,61,0
3618,63,0
3619,54,0
3620,46,0
3621,46,0
3622,53,0
3623,56,0
3624,59,0
3625,61,0
3625,62,0
3626,63,0
3627,62,0
3628,56,0
3629,67,0
3630,70,0
3631,69,0
3633,66,0
3634,64,0
3635,60,0
3636,60,0
3637,61,0
3637,60,0
3638,61,0
3639,58,0
3640,48,0
3641,46,0
3642,51,0
3643,56,0
3644,58,0
3645,60,0
3646,62,0
3647,62,0
3647,63,0
3648,59,0
3649,65,0
3650,70,0
3651,70,0
3652,67,0
3653,64,0
3654,62,0
3655,61,0
3656,60,0
3657,61,0
3658,60,0
3658,62,0
3659,50,0
3660,46,0
3661,48,0
3662,55,0
3663,58,0
3664,60,0
3665,61,0
3666,62,0
3667,62,0
3668,62,0
3668,61,0
3669,70,0
3670,72,0
3671,69,0
3672,65,0
3673,62,0
3674,60,0
3676,60,0
3677,61,0
3678,61,0
3679,64,0
3680,53,0
3680,47,0
3681,47,0
3682,52,0
3683,57,0
3684,60,0
3685,62,0
3686,62,0
3687,63,0
3688,63,0
3689,57,0
3690,67,0
3690,70,0
3691,70,0
3692,66,0
3693,63,0
3694,61,0
3695,60,0
3696,60,0
3697,61,0
3698,60,0
3699,58,0
3700,48,0
3701,46,0
3701,52,0
3702,56,0
3703,60,0
3704,61,0
3705,61,0
3706,62,0
3707,63,0
3708,59,0
3709,66,0
3710,71,0
3711,71,0
3711,67,0
3712,64,0
3713,62,0
3714,60,0
3715,61,0
3716,61,0
3717,60,0
3719,63,0
3720,50,0
3721,46,0
3722,48,0
3723,55,0
3723,58,0
3724,60,0
3725,62,0
3726,62,0
3727,62,0
3728,61,0
3729,61,0
3730,68,0
3731,71,0
3732,68,0
3733,65,0
3733,61,0
3734,60,0
3735,60,0
3736,60,0
3737,61,0
3738,64,0
3739,53,0
3740,48,0
3741,46,0
3742,53,0
3743,57,0
3744,60,0
3744,61,0
3745,62,0
3746,61,0
3747,62,0
3748,56,0
3749,65,0
3750,69,0
3751,70,0
3752,67,0
3753,63,0
3754,62,0
3754,60,0
3755,60,0
3756,61,0
3757,62,0
3758,53,0
3759,0,1
3761,30,0
3762,40,0
3763,49,0
3764,54,0
3765,56,0
3765,57,0
3766,57,0
3767,58,0
3768,56,0
3769,60,0
3770,66,0
3771,68,0
3772,64,0
3773,60,0
3774,57,0
3775,56,0
3775,56,0
3776,58,0
3777,58,0
3778,60,0
3779,48,0
3780,43,0
3781,43,0
3782,50,0
3783,55,0
3784,56,0
3785,58,0
3786,59,0
3786,59,0
3787,59,0
3788,55,0
3789,64,0
3790,68,0
3791,66,0
3792,63,0
3793,59,0
3794,56,0
3795,56,0
3796,56,0
3796,56,0
3797,58,0
3798,51,0
3799,44,0
3800,43,0
3801,49,0
3802,55,0
3804,55,0
3805,58,0
3806,58,0
3807,59,0
3808,60,0
3808,54,0
3809,63,0
3810,66,0
3811,66,0
3812,64,0
3813,60,0
3814,58,0
3815,57,0
3816,57,0
3817,57,0
3818,57,0
3818,56,0
3819,45,0
3820,43,0
3821,47,0
3822,52,0
3823,55,0
3824,57,0
3825,59,0
3826,59,0
3827,59,0
3828,57,0
3829,61,0
3829,67,0
3830,68,0
3831,64,0
3832,60,0
3833,58,0
3834,56,0
3835,56,0
3836,57,0
3837,57,0
3838,61,0
3839,48,0
3839,44,0
3840,44,0
3841,51,0
3842,54,0
3843,56,0
3844,58,0
3845,58,0
3847,59,0
3848,59,0
3849,56,0
3850,64,0
3851,68,0
3851,65,0
3852,62,0
3853,59,0
3854,57,0
3855,56,0
3856,57,0
3857,58,0
3858,59,0
3859,50,0
3860,44,0
3861,43,0
3861,50,0
3862,53,0
3863,56,0
3864,58,0
3865,58,0
3866,59,0
3867,59,0
3868,54,0
3869,63,0
3870,67,0
3871,67,0
3872,62,0
3872,59,0
3873,57,0
3874,57,0
3875,57,0
3876,58,0
3877,57,0
3878,56,0
3879,45,0
3880,42,0
3881,46,0
3882,52,0
3882,54,0
3883,57,0
3884,58,0
3885,58,0
3886,58,0
3887,57,0
3889,59,0
3890,65,0
3891,67,0
3892,64,0
3893,61,0
3894,57,0
3894,57,0
3895,56,0
3896,57,0
3897,57,0
3898,60,0
3899,47,0
3900,43,0
3901,44,0
3902,51,0
3903,54,0
3904,57,0
3904,58,0
3905,58,0
3906,58,0
3907,58,0
3908,55,0
3909,65,0
3910,67,0
3911,65,0
3912,62,0
3913,59,0
3914,56,0
3915,56,0
3915,56,0
3916,56,0
3917,58,0
3918,51,0
3919,44,0
3920,42,0
3921,48,0
3922,53,0
3923,56,0
3924,57,0
3925,58,0
3925,58,0
3926,58,0
3927,54,0
3928,62,0
3929,67,0
3930,66,0
3932,62,0
3933,60,0
3934,57,0
3935,56,0
3936,57,0
3937,56,0
3937,57,0
3938,56,0
3939,45,0
3940,43,0
3941,45,0
3942,52,0
3943,54,0
3944,56,0
3945,58,0
3946,58,0
3947,58,0
3947,56,0
3948,59,0
3949,66,0
3950,67,0
3951,64,0
3952,60,0
3953,57,0
3954,56,0
3955,56,0
3956,56,0
3957,57,0
3958,59,0
3958,48,0
3959,43,0
3960,44,0
3961,50,0
3962,54,0
3963,56,0
3964,58,0
3965,58,0
3966,58,0
3967,58,0
3968,55,0
3968,64,0
3969,67,0
3970,65,0
3971,61,0
3972,58,0
3973,56,0
3975,56,0
3976,56,0
3977,56,0
3978,58,0
3979,51,0
3980,43,0
3980,42,0
3981,48,0
3982,52,0
3983,54,0
3984,57,0
3985,58,0
3986,58,0
3987,58,0
3988,53,0
3989,61,0
3990,65,0
3990,66,0
3991,61,0
3992,59,0
3993,56,0
3994,56,0
3995,56,0
3996,57,0
3997,57,0
3998,56,0
3999,46,0
4000,42,0
4001,44,0
4001,50,0
4002,53,0
4003,55,0
4004,57,0
4005,56,0
4006,57,0
4007,55,0
4008,57,0
4009,64,0
4010,66,0
4011,63,0
4011,58,0
4012,54,0
4013,53,0
4014,54,0
4015,56,0
4017,56,0
4018,59,0
4019,48,0
4020,41,0
4021,37,0
4022,46,0
4023,50,0
4023,52,0
4024,56,0
4025,57,0
4026,58,0
4027,58,0
4028,48,0
4029,61,0
4030,64,0
4031,60,0
4032,58,0
4033,56,0
4033,54,0
4034,54,0
4035,54,0
4036,53,0
4037,53,0
4038,50,0
4039,37,0
4040,35,0
4041,41,0
4042,43,0
4043,48,0
4044,52,0
4044,54,0
4045,51,0
4046,52,0
4047,45,0
4048,51,0
4049,58,0
4050,59,0
4051,52,0
4052,52,0
4053,47,0
4054,47,0
4054,45,0
4055,44,0
4056,42,0
4057,46,0
4058,31,0
4060,27,0
4061,30,0
4062,36,0
4063,39,0
4064,42,0
4065,43,0
4066,42,0
4066,42,0
4067,42,0
4068,43,0
4069,50,0
4070,51,0
4071,48,0
4072,46,0
4073,44,0
4074,41,0
4075,41,0
4076,41,0
4076,42,0
4077,44,0
4078,32,0
4079,27,0
4080,27,0
4081,34,0
4082,37,0
4083,40,0
4084,42,0
4085,42,0
4086,42,0
4087,41,0
4087,37,0
4088,47,0
4089,50,0
4090,48,0
4091,45,0
4092,43,0
4093,42,0
4094,45,0
4095,45,0
4096,42,0
4097,40,0
4097,37,0
4098,35,0
4099,37,0
4100,38,0
4101,34,0
4103,44,0
4104,50,0
4105,51,0
4106,49,0
4107,46,0
4108,40,0
4109,47,0
4109,50,0
4110,50,0
4111,47,0
4112,42,0
4113,41,0
4114,40,0
4115,40,0
4116,40,0
4117,39,0
4118,40,0
4119,29,0
4119,27,0
4120,33,0
4121,39,0
4122,39,0
4123,39,0
4124,41,0
4125,46,0
4126,49,0
4127,45,0
4128,40,0
4129,50,0
4130,53,0
4130,49,0
4131,45,0
4132,41,0
4133,40,0
4134,44,0
4135,47,0
4136,45,0
4137,42,0
4138,31,0
4139,32,0
4140,38,0
4140,44,0
4141,38,0
4142,43,0
4143,48,0
4145,50,0
4146,46,0
4147,43,0
4148,37,0
4149,47,0
4150,50,0
4151,47,0
4152,44,0
4152,41,0
4153,40,0
4154,38,0
4155,41,0
4156,45,0
4157,45,0
4158,38,0
4159,27,0
4160,28,0
4161,38,0
4162,44,0
4162,41,0
4163,38,0
4164,40,0
4165,49,0
4166,55,0
4167,48,0
4168,46,0
4169,51,0
4170,57,0
4171,50,0
4172,45,0
4173,42,0
4173,41,0
4174,40,0
4175,40,0
4176,40,0
4177,40,0
4178,32,0
4179,32,0
4180,34,0
4181,34,0
4182,35,0
4183,40,0
4183,47,0
4184,50,0
4185,45,0
4186,39,0
4188,41,0
4189,47,0
4190,49,0
4191,51,0
4192,53,0
4193,49,0
4194,41,0
4195,36,0
4195,41,0
4196,49,0
4197,57,0
4198,44,0
4199,31,0
4200,26,0
4201,34,0
4202,44,0
4203,52,0
4204,55,0
4205,56,0
4205,56,0
4206,56,0
4207,52,0
4208,64,0
4209,68,0
4210,68,0
4211,63,0
4212,61,0
4213,59,0
4214,58,0
4215,58,0
4216,58,0
4216,59,0
4217,55,0
4218,46,0
4219,45,0
4220,49,0
4221,55,0
4222,56,0
4223,58,0
4224,59,0
4225,60,0
4226,61,0
4226,57,0
4227,63,0
4228,68,0
4229,68,0
4231,66,0
4232,61,0
4233,60,0
4234,59,0
4235,58,0
4236,59,0
4237,59,0
4238,59,0
4238,48,0
4239,44,0
4240,49,0
4241,54,0
4242,56,0
4243,59,0
4244,60,0
4245,60,0
4246,60,0
4247,60,0
4248,61,0
4248,69,0
4249,70,0
4250,67,0
4251,62,0
4252,61,0
4253,58,0
4254,58,0
4255,59,0
4256,59,0
4257,62,0
4258,52,0
4259,45,0
4259,45,0
4260,53,0
4261,55,0
4262,59,0
4263,61,0
4264,62,0
4265,61,0
4266,61,0
4267,56,0
4268,66,0
4269,70,0
4269,67,0
4270,66,0
4271,61,0
4273,60,0
4274,59,0
4275,58,0
4276,59,0
4277,58,0
4278,56,0
4279,47,0
4280,45,0
4281,50,0
4281,55,0
4282,57,0
4283,59,0
4284,60,0
4285,61,0
4286,61,0
4287,58,0
4288,64,0
4289,69,0
4290,69,0
4291,65,0
4291,62,0
4292,60,0
4293,59,0
4294,59,0
4295,60,0
4296,59,0
4297,61,0
4298,48,0
4299,45,0
4300,48,0
4301,54,0
4302,57,0
4302,59,0
4303,60,0
4304,61,0
4305,60,0
4306,60,0
4307,60,0
4308,69,0
4309,70,0
4310,67,0
4311,63,0
4312,60,0
4312,59,0
4313,58,0
4314,60,0
4316,60,0
4317,62,0
4318,52,0
4319,46,0
4320,45,0
4321,52,0
4322,55,0
4323,58,0
4324,60,0
4324,61,0
4325,61,0
4326,60,0
4327,55,0
4328,65,0
4329,69,0
4330,69,0
4331,64,0
4332,62,0
4333,60,0
4334,58,0
4334,59,0
4335,59,0
4336,59,0
4337,56,0
4338,47,0
4339,45,0
4340,51,0
4341,56,0
4342,58,0
4343,59,0
4344,60,0
4345,61,0
4345,61,0
4346,58,0
4347,64,0
4348,70,0
4349,69,0
4350,66,0
4351,62,0
4352,60,0
4353,59,0
4354,59,0
4355,60,0
4355,60,0
4356,61,0
4357,49,0
4359,44,0
4360,47,0
4361,54,0
4362,57,0
4363,60,0
4364,62,0
4365,60,0
4366,61,0
4367,61,0
4367,60,0
4368,68,0
4369,70,0
4370,67,0
4371,63,0
4372,59,0
4373,58,0
4374,58,0
4375,59,0
4376,58,0
4377,61,0
4377,51,0
4378,46,0
4379,44,0
4380,50,0
4381,55,0
4382,58,0
4383,61,0
4384,61,0
4385,62,0
4386,62,0
4387,55,0
4388,64,0
4388,66,0
4389,65,0
4390,65,0
4391,62,0
4392,59,0
4393,59,0
4394,59,0
4395,60,0
4396,59,0
4397,57,0
4398,48,0
4398,46,0
4399,51,0
4401,56,0
4402,49,0
4403,41,0
4404,47,0
4405,52,0
4406,55,0
4407,52,0
4408,60,0
4409,64,0
4410,66,0
4410,64,0
4411,59,0
4412,58,0
4413,56,0
4414,56,0
4415,57,0
4416,56,0
4417,58,0
4418,46,0
4419,42,0
4420,44,0
4421,51,0
4421,54,0
4422,57,0
4423,58,0
4424,57,0
4425,58,0
4426,57,0
4427,57,0
4428,66,0
4429,67,0
4430,64,0
4431,60,0
4431,59,0
4432,56,0
4433,55,0
4434,57,0
4435,57,0
4436,60,0
4437,50,0
4438,44,0
4439,42,0
4440,46,0
4441,52,0
4442,54,0
4442,57,0
4444,58,0
4445,59,0
4446,59,0
4447,53,0
4448,62,0
4449,65,0
4450,62,0
4451,61,0
4452,57,0
4453,56,0
4453,55,0
4454,56,0
4455,56,0
4456,56,0
4457,55,0
4458,44,0
4459,41,0
4460,42,0
4461,45,0
4462,51,0
4463,54,0
4464,57,0
4464,57,0
4465,58,0
4466,55,0
4467,59,0
4468,65,0
4469,66,0
4470,62,0
4471,58,0
4472,56,0
4473,56,0
4474,56,0
4474,57,0
4475,56,0
4476,59,0
4477,46,0
4478,42,0
4479,43,0
4480,46,0
4481,52,0
4482,55,0
4483,57,0
4484,57,0
4485,58,0
4485,58,0
4487,55,0
4488,64,0
4489,67,0
4490,65,0
4491,61,0
4492,54,0
4493,55,0
4494,55,0
4495,56,0
4496,57,0
4496,59,0
4497,50,0
4498,41,0
4499,37,0
4500,45,0
4501,44,0
4502,51,0
4503,56,0
4504,57,0
4505,58,0
4506,57,0
4507,53,0
4507,56,0
4508,64,0
4509,65,0
4510,61,0
4511,56,0
4512,54,0
4513,52,0
4514,54,0
4515,55,0
4516,55,0
4517,54,0
4517,43,0
4518,39,0
4519,41,0
4520,45,0
4521,45,0
4522,51,0
4523,54,0
4524,56,0
4525,57,0
4526,55,0
4527,54,0
4529,60,0
4529,64,0
4530,60,0
4531,52,0
4532,53,0
4533,52,0
4534,51,0
4535,52,0
4536,51,0
4537,54,0
4538,38,0
4539,31,0
4539,31,0
4540,36,0
4541,39,0
4542,41,0
4543,42,0
4544,42,0
4545,43,0
4546,42,0
4547,41,0
4548,55,0
4549,58,0
4550,53,0
4550,52,0
4551,46,0
4552,44,0
4553,47,0
4554,46,0
4555,44,0
4556,44,0
4557,34,0
4558,28,0
4559,25,0
4560,32,0
4560,36,0
4561,39,0
4562,41,0
4563,41,0
4564,42,0
4565,41,0
4566,36,0
4567,45,0
4568,53,0
4569,51,0
4570,48,0
4572,44,0
4572,43,0
4573,42,0
4574,40,0
4575,40,0
4576,39,0
4577,38,0
4578,28,0
4579,25,0
4580,29,0
4581,33,0
4582,36,0
4582,38,0
4583,39,0
4584,40,0
4585,41,0
4586,38,0
4587,41,0
4588,48,0
4589,49,0
4590,45,0
4591,41,0
4592,43,0
4593,43,0
4593,44,0
4594,41,0
4595,37,0
4596,43,0
4597,36,0
4598,35,0
4599,35,0
4600,37,0
4601,36,0
4602,40,0
4603,47,0
4603,52,0
4604,54,0
4605,54,0
4606,53,0
4607,64,0
4608,66,0
4609,65,0
4610,61,0
4611,59,0
4612,57,0
4613,57,0
4615,58,0
4615,58,0
4616,60,0
4617,52,0
4618,45,0
4619,43,0
4620,50,0
4621,54,0
4622,57,0
4623,60,0
4624,60,0
4625,60,0
4625,60,0
4626,54,0
4627,62,0
4628,67,0
4629,68,0
4630,65,0
4631,62,0
4632,58,0
4633,58,0
4634,57,0
4635,58,0
4636,59,0
4636,57,0
4637,46,0
4638,45,0
4639,48,0
4640,54,0
4641,56,0
4642,57,0
4643,59,0
4644,60,0
4645,61,0
4646,58,0
4646,62,0
4647,67,0
4648,68,0
4649,66,0
4650,61,0
4651,61,0
4652,59,0
4653,59,0
4654,59,0
4655,59,0
4657,61,0
4658,50,0
4658,44,0
4659,46,0
4660,53,0
4661,56,0
4662,58,0
4663,59,0
4664,60,0
4665,60,0
4666,60,0
4667,58,0
4668,67,0
4668,70,0
4669,68,0
4670,64,0
4671,60,0
4672,59,0
4673,58,0
4674,58,0
4675,59,0
4676,60,0
4677,53,0
4678,46,0
4679,46,0
4679,50,0
4680,55,0
4681,58,0
4682,60,0
4683,61,0
4684,61,0
4685,60,0
4686,56,0
4687,64,0
4688,69,0
4689,69,0
4689,66,0
4690,61,0
4691,60,0
4692,59,0
4693,59,0
4694,58,0
4695,58,0
4696,58,0
4697,48,0
4698,45,0
4700,48,0
4701,56,0
4701,56,0
4702,59,0
4703,60,0
4704,61,0
4705,61,0
4706,59,0
4707,62,0
4708,69,0
4709,69,0
4710,66,0
4711,62,0
4711,60,0
4712,58,0
4713,59,0
4714,59,0
4715,59,0
4716,62,0
4717,49,0
4718,45,0
4719,46,0
4720,52,0
4721,55,0
4722,50,0
4722,48,0
4723,51,0
4724,55,0
4725,55,0
4726,54,0
4727,66,0
4728,68,0
4729,67,0
4730,63,0
4731,60,0
4732,59,0
4732,58,0
4733,59,0
4734,60,0
4735,60,0
4736,54,0
4737,46,0
4738,44,0
4739,50,0
4740,54,0
4741,57,0
4743,59,0
4744,61,0
4744,61,0
4745,60,0
4746,56,0
4747,64,0
4748,69,0
4749,69,0
4750,66,0
4751,62,0
4752,60,0
4753,58,0
4754,59,0
4754,59,0
4755,58,0
4756,59,0
4757,48,0
4758,45,0
4759,48,0
4760,54,0
4761,56,0
4762,59,0
4763,60,0
4764,61,0
4765,61,0
4765,60,0
4766,61,0
4767,68,0
4768,69,0
4769,68,0
4770,63,0
4771,60,0
4772,59,0
4773,59,0
4774,59,0
4775,60,0
4775,62,0
4776,50,0
4777,45,0
4778,45,0
4779,53,0
4780,58,0
4781,59,0
4782,61,0
4783,60,0
4785,61,0
4786,61,0
4787,58,0
4787,67,0
4788,70,0
4789,67,0
4790,64,0
4791,61,0
4792,58,0
4793,57,0
4794,59,0
4795,60,0
4796,61,0
4797,54,0
4797,47,0
4798,44,0
4799,50,0
4800,54,0
4801,58,0
4802,60,0
4803,61,0
4804,61,0
4805,60,0
4806,57,0
4807,65,0
4808,70,0
4808,69,0
4809,66,0
4810,62,0
4811,61,0
4812,59,0
4813,59,0
4814,60,0
4815,59,0
4816,60,0
4817,48,0
4818,45,0
4818,49,0
4819,55,0
4820,57,0
4821,60,0
4822,60,0
4823,61,0
4824,61,0
4825,61,0
4826,62,0
4828,69,0
4829,72,0
4830,67,0
4830,65,0
4831,60,0
4832,59,0
4833,60,0
4834,59,0
4835,59,0
4836,63,0
4837,52,0
4838,45,0
4839,46,0
4840,53,0
4840,56,0
4841,58,0
4842,60,0
4843,61,0
4844,61,0
4845,61,0
4846,56,0
4847,66,0
4848,72,0
4849,70,0
4850,65,0
4851,63,0
4851,59,0
4852,59,0
4853,60,0
4854,60,0
4855,60,0
4856,55,0
4857,47,0
4858,46,0
4859,52,0
4860,56,0
4861,57,0
4861,60,0
4862,62,0
4863,62,0
4864,62,0
4865,58,0
4866,64,0
4867,71,0
4868,70,0
4869,66,0
4871,64,0
4872,60,0
4873,59,0
4873,59,0
4874,60,0
4875,60,0
4876,61,0
4877,49,0
4878,46,0
4879,48,0
4880,54,0
4881,57,0
4882,60,0
4883,61,0
4883,61,0
4884,62,0
4885,61,0
4886,61,0
4887,68,0
4888,71,0
4889,68,0
4890,64,0
4891,61,0
4892,59,0
4893,60,0
4894,60,0
4894,60,0
4895,63,0
4896,52,0
4897,47,0
4898,46,0
4899,52,0
4900,57,0
4901,59,0
4902,61,0
4903,61,0
4904,61,0
4904,62,0
4905,56,0
4906,67,0
4907,71,0
4908,69,0
4909,66,0
4910,63,0
4911,60,0
4913,59,0
4914,59,0
4915,60,0
4916,60,0
4916,56,0
4917,48,0
4918,45,0
4919,52,0
4920,55,0
4921,58,0
4922,61,0
4923,62,0
4924,62,0
4925,62,0
4926,57,0
4926,55,0
4927,58,0
4928,61,0
4929,61,0
4930,59,0
4931,59,0
4932,58,0
4933,58,0
4934,61,0
4935,60,0
4936,62,0
4937,50,0
4937,46,0
4938,49,0
4939,55,0
4940,58,0
4941,60,0
4942,61,0
4943,59,0
4944,60,0
4945,59,0
4946,58,0
4947,67,0
4947,70,0
4948,67,0
4949,63,0
4950,60,0
4951,60,0
4952,59,0
4953,60,0
4954,60,0
4956,62,0
4957,52,0
4958,46,0
4959,46,0
4959,53,0
4960,58,0
4961,59,0
4962,61,0
4963,62,0
4964,62,0
4965,62,0
4966,57,0
4967,67,0
4968,70,0
4969,68,0
4969,65,0
4970,62,0
4971,60,0
4972,60,0
4973,59,0
4974,61,0
4975,60,0
4976,56,0
4977,47,0
4978,45,0
4979,51,0
4980,56,0
4980,59,0
4981,60,0
4982,61,0
4983,61,0
4984,62,0
4985,58,0
4986,64,0
4987,70,0
4988,71,0
4989,67,0
4990,64,0
4990,61,0
4991,60,0
4992,59,0
4993,60,0
4994,60,0
4995,62,0
4996,50,0
4997,45,0
4999,48,0
