rms_biceps,mav_biceps,wl_biceps,ZCR_biceps,rms_triceps,mav_triceps,wl_triceps,ZCR_triceps,rms_antebrazo,mav_antebrazo,wl_antebrazo,ZCR_antebrazo,angulo_codo,angulo_muneca,pct_mvc_rms_biceps,pct_mvc_rms_biceps_crudo,pct_mvc_mav_biceps,pct_mvc_mav_biceps_crudo,pct_mvc_wl_biceps,pct_mvc_wl_biceps_crudo,pct_mvc_ZCR_biceps,pct_mvc_ZCR_biceps_crudo,pct_mvc_rms_triceps,pct_mvc_rms_triceps_crudo,pct_mvc_mav_triceps,pct_mvc_mav_triceps_crudo,pct_mvc_wl_triceps,pct_mvc_wl_triceps_crudo,pct_mvc_ZCR_triceps,pct_mvc_ZCR_triceps_crudo,pct_mvc_rms_antebrazo,pct_mvc_rms_antebrazo_crudo,pct_mvc_mav_antebrazo,pct_mvc_mav_antebrazo_crudo,pct_mvc_wl_antebrazo,pct_mvc_wl_antebrazo_crudo,pct_mvc_ZCR_antebrazo,pct_mvc_ZCR_antebrazo_crudo,saturado_algun_canal
8.725355,4.69983,243.185537,23.0,73.748415,55.782648,6931.972434,43.0,2.871555,1.680912,98.85456,23.0,90.0,0.0,5.723316162513123,5.723316162513123,3.4019181557022966,3.4019181557022966,0.6721344916351845,0.6721344916351845,0.0,-26.696832579185514,0.0,-4.252742331900349,0.0,-7.4346352896775905,0.0,-12.682582757937636,0.0,-73.5895846249225,3.5303578706972885,3.5303578706972885,1.7455633480278991,1.7455633480278991,0.0,-1.43910673500461,0.0,-30.565583634175685,False
4.258041,2.758469,160.271513,24.0,75.313661,57.38541,7164.214292,44.0,1.528443,1.05467,77.622614,26.0,90.0,0.0,0.9413301255734252,0.9413301255734252,0.0,-0.0682402134331142,0.0,-2.151171542036322,0.0,-22.00435729847494,0.0,-3.437402678522461,0.0,-6.426087032149444,0.0,-11.201678820202376,0.0,-56.23062616243024,0.0,-0.09714306495989947,0.0,-1.2772989992166868,0.0,-3.70824302112804,0.0,-17.930204572803845,False
2.483919,1.977214,133.339137,25.0,76.026097,58.52955,7440.106234,46.0,0.99103,0.780912,69.504413,27.0,90.0,0.0,0.0,-0.9577588195572575,0.0,-1.4647236993375308,0.0,-3.0682460729010854,0.0,-17.311882017764365,0.0,-3.0662933951932425,0.0,-5.706129606550224,0.0,-9.442437541236941,0.0,-21.512709237445744,0.0,-1.5485977167940999,0.0,-2.598725461282443,0.0,-4.5758650689207165,0.0,-13.718411552346566,False
2.09595,1.704134,127.736054,26.0,75.566097,57.775746,7382.179669,47.0,0.879404,0.726136,65.606695,28.0,90.0,0.0,0.0,-1.373055872946712,0.0,-1.9528507645477093,0.0,-3.259036692845695,0.0,-12.61940673705379,0.0,-3.3059082803638953,0.0,-6.180465603234542,0.0,-9.811809707592833,0.0,-4.153750774953496,0.0,-1.8500792160612265,0.0,-2.8631285321922024,0.0,-4.992428550519456,0.0,-9.506618531889286,False
2.054524,1.640779,127.314023,29.0,76.788845,59.605849,7558.835326,47.0,0.832416,0.687413,69.310851,32.0,90.0,0.0,0.0,-1.417399868816773,0.0,-2.0660970301709365,0.0,-3.2734072734931425,1.4580191050779339,1.4580191050779339,0.0,-2.668976494249443,0.0,-5.02886156486388,0.0,-8.68535446680454,0.0,-4.153750774953496,0.0,-1.9769852476986922,0.0,-3.050043971706563,0.0,-4.596551752930492,7.340553549939835,7.340553549939835,False
2.020283,1.605569,128.283594,30.0,76.135006,58.770876,7656.522527,47.0,0.873469,0.711895,73.332935,33.0,90.0,0.0,0.0,-1.4540527622312165,0.0,-2.1290344623008997,0.0,-3.240392404327308,6.150494385788508,6.150494385788508,0.0,-3.0095624875213867,0.0,-5.554273674854664,0.0,-8.06244625433564,0.0,-4.153750774953496,0.0,-1.8661085703169589,0.0,-2.93186966211819,0.0,-4.166696818755524,11.552346570397114,11.552346570397114,False
2.079168,1.657841,131.215289,28.0,72.004088,55.938995,7510.447626,49.0,0.874989,0.716978,74.462406,36.0,90.0,0.0,0.0,-1.391019976135322,0.0,-2.0355989197761217,0.0,-3.140565236580816,0.0,-3.2344561756326407,0.0,-5.161365622780943,0.0,-7.336252938199486,0.0,-8.993901496547787,30.564166150031003,30.564166150031003,0.0,-1.8620033271040333,0.0,-2.907334084320718,0.0,-4.0459860920880715,24.187725631768956,24.187725631768956,False
2.131594,1.691395,138.941733,29.0,71.798028,55.722721,7507.173515,49.0,0.885237,0.728058,74.911339,35.0,90.0,0.0,0.0,-1.3349011539588194,0.0,-1.9756215668170534,0.0,-2.877472035797014,1.4580191050779339,1.4580191050779339,0.0,-5.268702673298908,0.0,-7.472344738384818,0.0,-9.014779058905567,30.564166150031003,30.564166150031003,0.0,-1.8343253452316244,0.0,-2.8538510620905417,0.0,-3.9980069685381983,19.975932611311677,19.975932611311677,False
2.187151,1.765968,141.62448,26.0,70.372531,55.122294,7388.554839,49.0,0.88973,0.737796,77.738679,37.0,90.0,0.0,0.0,-1.2754307880400015,0.0,-1.8423232672934022,0.0,-2.7861217982073616,0.0,-12.61940673705379,0.0,-6.011246803660029,0.0,-7.8501672751200635,0.0,-9.771158059186144,30.564166150031003,30.564166150031003,0.0,-1.8221905703923649,0.0,-2.806845857173804,0.0,-3.695838727002154,28.399518652226234,28.399518652226234,False
2.312987,1.838309,147.558389,26.0,70.320264,55.636711,7434.280238,48.0,0.870993,0.73005,76.474359,38.0,90.0,0.0,0.0,-1.1407310568493252,0.0,-1.7130146396957404,0.0,-2.584066219732993,0.0,-12.61940673705379,0.0,-6.038472784536583,0.0,-7.526467081957973,0.0,-9.479587349165316,13.205207687538753,13.205207687538753,0.0,-1.8727957954453824,0.0,-2.844235702859268,0.0,-3.830961263074522,32.61131167268352,32.61131167268352,False
2.164346,1.746806,146.632163,29.0,64.377131,53.494769,7090.010526,49.0,0.841436,0.704533,74.768874,37.0,90.0,0.0,0.0,-1.299842143850766,0.0,-1.8765751012744973,0.0,-2.6156051479888873,1.4580191050779339,1.4580191050779339,0.0,-9.13426220051252,0.0,-8.874297809056792,0.0,-11.67484352104707,30.564166150031003,30.564166150031003,0.0,-1.9526238702114629,0.0,-2.9674059445783483,0.0,-4.01323272791996,28.399518652226234,28.399518652226234,False
2.112702,1.707281,148.447214,29.0,60.749888,50.737544,6781.642144,49.0,0.789731,0.662198,70.04865,37.0,90.0,0.0,0.0,-1.3551238829207561,0.0,-1.9472255416305553,0.0,-2.553800833199853,1.4580191050779339,1.4580191050779339,0.0,-11.023700059058315,0.0,-10.609299306074469,0.0,-13.64117273968797,30.564166150031003,30.564166150031003,0.0,-2.0922696598985144,0.0,-3.1717564631807407,0.0,-4.517700455797127,28.399518652226234,28.399518652226234,False
2.17266,1.727029,149.384469,29.0,58.886051,49.600197,6587.63928,48.0,0.783434,0.658621,69.921619,38.0,90.0,0.0,0.0,-1.290942516040606,0.0,-1.911926240020146,0.0,-2.5218863563848237,1.4580191050779339,1.4580191050779339,0.0,-11.994576338910095,0.0,-11.324982192900377,0.0,-14.878243471483094,13.205207687538753,13.205207687538753,0.0,-2.10927671023522,0.0,-3.189022597703967,0.0,-4.531276726741039,32.61131167268352,32.61131167268352,False
2.196541,1.760096,150.142195,27.0,59.152549,50.365315,6690.060117,49.0,0.813959,0.674208,68.180199,36.0,90.0,0.0,0.0,-1.2653793681293208,0.0,-1.85281939343561,0.0,-2.49608502285324,0.0,-7.926931456343215,0.0,-11.855757017892248,0.0,-10.84352678922633,0.0,-14.22515094920642,30.564166150031003,30.564166150031003,0.0,-2.0268342437388025,0.0,-3.113784342514277,0.0,-4.717388697418671,24.187725631768956,24.187725631768956,False
2.140318,1.683305,145.895564,27.0,60.898533,51.779916,6806.117888,50.0,0.836975,0.696075,67.754554,37.0,90.0,0.0,0.0,-1.3255626462590557,0.0,-1.9900823400613419,0.0,-2.6406870858899634,0.0,-7.926931456343215,0.0,-10.946270592523115,0.0,-9.953380046511208,0.0,-13.485101711059707,47.92312461252325,47.92312461252325,0.0,-1.9646722188778185,0.0,-3.0082326054107336,0.0,-4.762878946617073,28.399518652226234,28.399518652226234,False
2.173266,1.722546,146.819532,29.0,61.725171,52.966878,6868.753866,49.0,0.823512,0.683091,64.842348,35.0,90.0,0.0,0.0,-1.2902938301549969,0.0,-1.919939546133143,0.0,-2.6092250448084764,1.4580191050779339,1.4580191050779339,0.0,-10.515673267636808,0.0,-9.206476603047907,0.0,-13.085699694287605,30.564166150031003,30.564166150031003,0.0,-2.001033330309146,0.0,-3.070906211966384,0.0,-5.074117130213921,19.975932611311677,19.975932611311677,False
2.229955,1.786309,150.634906,28.0,61.862921,52.763799,6929.701337,49.0,0.817022,0.677941,60.724568,32.0,90.0,0.0,0.0,-1.2296117275653704,0.0,-1.8059639856417242,0.0,-2.4793077170122357,0.0,-3.2344561756326407,0.0,-10.443919027566684,0.0,-9.334265364941789,0.0,-12.697064542225972,30.564166150031003,30.564166150031003,0.0,-2.018561638501177,0.0,-3.095765197930771,0.0,-5.514199448446708,7.340553549939835,7.340553549939835,False
2.307104,1.865398,153.312489,27.0,63.837042,54.302263,7187.509478,49.0,0.774799,0.649247,58.079459,30.0,90.0,0.0,0.0,-1.147028448045762,0.0,-1.6645933929201489,0.0,-2.3881333188241047,0.0,-7.926931456343215,0.0,-9.415595599897165,0.0,-8.36617703587622,0.0,-11.053135689456,30.564166150031003,30.564166150031003,0.0,-2.1325982728297017,0.0,-3.234270779146717,0.0,-5.796891991685639,0.0,-1.0830324909747253,False
2.28107,1.818587,153.608058,28.0,64.682343,55.52003,7270.525147,49.0,0.791743,0.672982,55.907912,27.0,90.0,0.0,0.0,-1.1748962505968443,0.0,-1.7482674666331768,0.0,-2.378068896657521,0.0,-3.2344561756326407,0.0,-8.975276682397942,0.0,-7.59988934879275,0.0,-10.523781368169834,30.564166150031003,30.564166150031003,0.0,-2.086835614277194,0.0,-3.119702229270071,0.0,-6.028973219413068,0.0,-13.718411552346566,False
2.209952,1.733179,146.358573,31.0,65.745765,56.844035,7409.14963,49.0,0.80079,0.684009,58.10366,27.0,90.0,0.0,0.0,-1.2510237139842575,0.0,-1.9009331923746111,0.0,-2.6249211630667726,10.842969666499084,10.842969666499084,0.0,-8.421338116271967,0.0,-6.766750719533661,0.0,-9.639834156805316,30.564166150031003,30.564166150031003,0.0,-2.062401314706577,0.0,-3.066475037380888,0.0,-5.7943055416607345,0.0,-13.718411552346566,False
2.04451,1.558503,136.685357,33.0,65.426958,56.636866,7464.888694,50.0,0.796105,0.673823,58.041883,27.0,90.0,0.0,0.0,-1.4281192425106557,0.0,-2.2131643453065477,0.0,-2.954303911367684,20.227920227920233,20.227920227920233,0.0,-8.587405296047189,0.0,-6.897113140132507,0.0,-9.28441071990154,47.92312461252325,47.92312461252325,0.0,-2.075054646583259,0.0,-3.115642732727149,0.0,-5.800907877233171,0.0,-13.718411552346566,False
1.938824,1.464349,125.91068,33.0,64.532583,55.249776,7414.345146,51.0,0.81883,0.685982,62.100782,29.0,90.0,0.0,0.0,-1.54124963278544,0.0,-2.3814634360411278,0.0,-3.3211925161827347,20.227920227920233,20.227920227920233,0.0,-9.05328695457872,0.0,-7.769948409832389,0.0,-9.606704641871078,65.2820830750155,65.2820830750155,0.0,-2.013678559732118,0.0,-3.0569513909133663,0.0,-5.367118388384146,0.0,-5.2948255114320055,False
1.91278,1.430542,126.759488,33.0,63.633201,54.006245,7254.404794,50.0,0.833714,0.700679,66.792196,31.0,90.0,0.0,0.0,-1.5691281397240742,0.0,-2.441893023317972,0.0,-3.2922897488073555,20.227920227920233,20.227920227920233,0.0,-9.521776769045145,0.0,-8.55244825898793,0.0,-10.626573752113744,47.92312461252325,47.92312461252325,0.0,-1.9734795860602863,0.0,-2.986009154657328,0.0,-4.865729691341139,3.128760529482555,3.128760529482555,False
1.760342,1.316255,124.787952,34.0,62.230074,53.03059,6971.099612,49.0,0.83147,0.701688,68.987995,33.0,90.0,0.0,0.0,-1.7323036826787475,0.0,-2.6461795983204457,0.0,-3.359422535468398,24.920395508630808,24.920395508630808,0.0,-10.252668323360027,0.0,-9.166385418839878,0.0,-12.43308599421183,30.564166150031003,30.564166150031003,0.0,-1.9795402214351578,0.0,-2.981138724203335,0.0,-4.631056563030925,11.552346570397114,11.552346570397114,False
1.718382,1.264843,127.171987,37.0,61.705039,52.157415,6994.908669,49.0,0.820561,0.692337,66.811374,32.0,90.0,0.0,0.0,-1.777219292844048,0.0,-2.7380779016622716,0.0,-3.2782437423611666,38.99782135076253,38.99782135076253,0.0,-10.526160065176496,0.0,-9.715836382094022,0.0,-12.281266134653766,30.564166150031003,30.564166150031003,0.0,-2.0090034439416087,0.0,-3.0262758849320694,0.0,-4.863680067830639,7.340553549939835,7.340553549939835,False
1.584344,1.174123,124.688259,40.0,62.608327,52.905476,7056.899214,49.0,0.781656,0.659581,67.73377,32.0,90.0,0.0,0.0,-1.9206987627043093,0.0,-2.9002387605895725,0.0,-3.36281718253576,53.07524719289426,53.07524719289426,0.0,-10.055635607793818,0.0,-9.245114204955579,0.0,-11.885979759564334,30.564166150031003,30.564166150031003,0.0,-2.1140787644671812,0.0,-3.184388689640702,0.0,-4.765100209263972,7.340553549939835,7.340553549939835,False
1.545163,1.127885,121.01208,38.0,62.8173,52.975357,7132.847361,49.0,0.761985,0.643945,69.067141,33.0,90.0,0.0,0.0,-1.9626396235691006,0.0,-2.9828886040097724,0.0,-3.48799478037562,43.6902966314731,43.6902966314731,0.0,-9.94678116997041,0.0,-9.201141137972254,0.0,-11.401691910144887,30.564166150031003,30.564166150031003,0.0,-2.167206553441826,0.0,-3.2598634672211206,0.0,-4.622597938442226,11.552346570397114,11.552346570397114,False
1.487254,1.088973,113.228787,34.0,62.280686,52.05638,7057.350956,48.0,0.722184,0.604727,65.247346,34.0,90.0,0.0,0.0,-2.024627661439987,0.0,-3.0524433145761214,0.0,-3.753023746871484,24.920395508630808,24.920395508630808,0.0,-10.226304435168162,0.0,-9.77941330318359,0.0,-11.88309919999423,13.205207687538753,13.205207687538753,0.0,-2.2747018068087015,0.0,-3.4491682655806017,0.0,-5.030833501967721,15.764139590854395,15.764139590854395,False
1.375187,1.023561,113.310713,37.0,62.894707,53.152164,7082.838337,50.0,0.720086,0.598185,66.02764,38.0,90.0,0.0,0.0,-2.144588521411263,0.0,-3.169366441826481,0.0,-3.750234084050215,38.99782135076253,38.99782135076253,0.0,-9.906459714717359,0.0,-9.089884200405244,0.0,-11.720577408227223,47.92312461252325,47.92312461252325,0.0,-2.280368122769701,0.0,-3.480746418236722,0.0,-4.947440607635547,32.61131167268352,32.61131167268352,False
1.342951,1.000807,110.616181,36.0,62.873009,52.761157,6885.54053,49.0,0.732575,0.613553,65.822472,37.0,90.0,0.0,0.0,-2.179095185121669,0.0,-3.2100389306275368,0.0,-3.8419856127604963,34.305346070051954,34.305346070051954,0.0,-9.91776224467047,0.0,-9.335927860369301,0.0,-12.978658538859722,30.564166150031003,30.564166150031003,0.0,-2.2466376079761297,0.0,-3.4065652733239644,0.0,-4.969367667621069,28.399518652226234,28.399518652226234,False
1.301657,1.002783,107.7528,35.0,64.678661,53.985303,7146.351071,49.0,0.748437,0.620781,67.22612,37.0,90.0,0.0,0.0,-2.2232978830760524,0.0,-3.2065068554815896,0.0,-3.9394866199966225,29.612870789341383,29.612870789341383,0.0,-8.977194643283156,0.0,-8.565626146665048,0.0,-11.315584704987087,30.564166150031003,30.564166150031003,0.0,-2.2037972343949286,0.0,-3.371675807197637,0.0,-4.819354634913443,28.399518652226234,28.399518652226234,False
1.366683,1.050321,107.882757,32.0,66.572325,55.449336,7307.98801,49.0,0.742624,0.6147,64.957352,36.0,90.0,0.0,0.0,-2.153691532584898,0.0,-3.12153327841274,0.0,-3.935061453245364,15.535444947209657,15.535444947209657,0.0,-7.990781421735754,0.0,-7.644374001235028,0.0,-10.284897207436257,30.564166150031003,30.564166150031003,0.0,-2.219497088866466,0.0,-3.401028718585877,0.0,-5.061826229066691,24.187725631768956,24.187725631768956,False
1.59615,1.21576,119.534464,32.0,67.237229,56.179155,7439.975714,48.0,0.776377,0.636738,63.507797,34.0,90.0,0.0,0.0,-1.9080611627612316,0.0,-2.82581314679817,0.0,-3.538309093527875,15.535444947209657,15.535444947209657,0.0,-7.644431648671607,0.0,-7.185130719474583,0.0,-9.443269809733316,13.205207687538753,13.205207687538753,0.0,-2.128336382178388,0.0,-3.294651566608564,0.0,-5.216745511982711,15.764139590854395,15.764139590854395,False
2.222234,1.57728,141.843856,29.0,67.687309,57.602249,7449.80718,48.0,0.828189,0.665033,62.415975,31.0,90.0,0.0,0.0,-1.2378765851937377,0.0,-2.179600693982937,0.0,-2.7786518244373912,1.4580191050779339,1.4580191050779339,0.0,-7.40998411058985,0.0,-6.28963970209411,0.0,-9.380578885545523,13.205207687538753,13.205207687538753,0.0,-1.98840160497569,0.0,-3.1580719534314134,0.0,-5.333432551323704,3.128760529482555,3.128760529482555,False
2.307518,1.640774,147.417761,29.0,70.237429,59.189351,7952.745803,50.0,0.837226,0.672902,59.934286,28.0,90.0,0.0,0.0,-1.1465852864011374,0.0,-2.066105967608047,0.0,-2.588854744782786,1.4580191050779339,1.4580191050779339,0.0,-6.081621695434645,0.0,-5.29094559990087,0.0,-6.173561022125522,47.92312461252325,47.92312461252325,0.0,-1.9639943135841054,0.0,-3.120088388275343,0.0,-5.598659797134021,0.0,-9.506618531889286,False
2.475086,1.825077,147.341173,27.0,71.801838,60.465767,8011.433544,49.0,0.830852,0.662207,58.737648,27.0,90.0,0.0,0.0,-0.9672140050813304,0.0,-1.736666673264149,0.0,-2.59146264332727,0.0,-7.926931456343215,0.0,-5.266718036967386,0.0,-4.487752653798426,0.0,-5.799335172004705,30.564166150031003,30.564166150031003,0.0,-1.9812093268993605,0.0,-3.1717130202926476,0.0,-5.726548908530318,0.0,-13.718411552346566,False
2.501784,1.867607,152.581222,26.0,70.884657,60.077272,7786.453871,48.0,0.90684,0.714044,64.224166,28.0,90.0,0.0,0.0,-0.9386354311968409,0.0,-1.6606448332048667,0.0,-2.41303369675444,0.0,-12.61940673705379,0.0,-5.74447938478414,0.0,-4.73221562166789,0.0,-7.233931357745231,13.205207687538753,13.205207687538753,0.0,-1.7759795760679196,0.0,-2.9214964658390694,0.0,-5.140184517896066,0.0,-9.506618531889286,False
2.720306,2.080793,155.585672,24.0,68.889107,57.382912,7562.067648,49.0,0.930426,0.741001,64.44552,27.0,90.0,0.0,0.0,-0.7047210135480845,0.0,-1.2795775396502411,0.0,-2.3107291479743166,0.0,-22.00435729847494,0.0,-6.783965219789148,0.0,-6.427658914654337,0.0,-8.664743374475833,30.564166150031003,30.564166150031003,0.0,-1.7122780850020884,0.0,-2.791375362025093,0.0,-5.116527600462375,0.0,-13.718411552346566,False
2.739267,2.131804,161.638073,24.0,69.12805,57.784526,7627.949881,49.0,0.978931,0.770547,66.574046,25.0,90.0,0.0,0.0,-0.6844244243120438,0.0,-1.1883960187646532,0.0,-2.1046387975469933,0.0,-22.00435729847494,0.0,-6.659499351294945,0.0,-6.1749407319803575,0.0,-8.24464142077681,30.564166150031003,30.564166150031003,0.0,-1.5812749126054066,0.0,-2.6487571874030005,0.0,-4.889044185491503,0.0,-22.141997593261127,False
2.761,2.168037,165.198856,23.0,68.66213,57.29721,7613.316974,49.0,1.049774,0.84111,72.12795,25.0,90.0,0.0,0.0,-0.6611605788467796,0.0,-1.1236299870019444,0.0,-1.9833905497415922,0.0,-26.696832579185514,0.0,-6.90219797585736,0.0,-6.481587447254109,0.0,-8.337949017363524,30.564166150031003,30.564166150031003,0.0,-1.3899408698861384,0.0,-2.308150463790372,0.0,-4.295478004791624,0.0,-22.141997593261127,False
2.79495,2.232731,160.474554,21.0,73.10814,60.371191,8170.942971,49.0,1.082673,0.866849,73.981147,25.0,90.0,0.0,0.0,-0.6248191831100791,0.0,-1.0079902757206085,0.0,-2.1442577914700403,0.0,-36.08178314060666,0.0,-4.586262811471302,0.0,-4.547265207754646,0.0,-4.782213880500933,30.564166150031003,30.564166150031003,0.0,-1.3010866616874284,0.0,-2.183908630831662,0.0,-4.097420014344818,0.0,-22.141997593261127,False
2.720878,2.133726,158.763857,22.0,75.959073,61.572335,8255.784306,47.0,1.104799,0.889378,75.808783,26.0,90.0,0.0,0.0,-0.7041087225801494,0.0,-1.1849604679394956,0.0,-2.2025087474468457,0.0,-31.389307859896086,0.0,-3.10120632576645,0.0,-3.7914376499261033,0.0,-4.241218092031933,0.0,-4.153750774953496,0.0,-1.2413283647603282,0.0,-2.0751614279594923,0.0,-3.9020938221330694,0.0,-17.930204572803845,False
2.716962,2.135533,154.186755,19.0,74.841483,59.982074,8166.29817,47.0,1.087998,0.863432,71.316586,23.0,90.0,0.0,0.0,-0.7083005607452426,0.0,-1.1817304781678724,0.0,-2.358363680905749,0.0,-45.46673370202781,0.0,-3.683361107327047,0.0,-4.792119573109319,0.0,-4.811831728679263,0.0,-4.153750774953496,0.0,-1.2867048063526725,0.0,-2.2004024473443438,0.0,-4.3821914644836495,0.0,-30.565583634175685,False
2.741967,2.179202,159.857375,22.0,71.221209,56.284521,7519.257327,46.0,1.121019,0.902815,70.835484,22.0,90.0,0.0,0.0,-0.6815342396731899,0.0,-1.103672689934888,0.0,-2.1652733580834203,0.0,-31.389307859896086,0.0,-5.569168800362501,0.0,-7.118828488885945,0.0,-8.9377259172895,0.0,-21.512709237445744,0.0,-1.1975210983697673,0.0,-2.010301196036489,0.0,-4.433608607572021,0.0,-34.77737665463297,False
2.82189,2.262299,153.029512,22.0,72.58772,56.410984,7589.936383,45.0,1.042738,0.827087,68.478805,24.0,90.0,0.0,0.0,-0.5959815630468478,0.0,-0.955137847625784,0.0,-2.3977689707071956,0.0,-31.389307859896086,0.0,-4.8573505909072,0.0,-7.039250835877087,0.0,-8.487036738141567,0.0,-38.871667699937994,0.0,-1.4089438246533388,0.0,-2.375839310426993,0.0,-4.685475574153656,0.0,-26.35379061371841,False
2.603861,2.141959,153.607842,22.0,74.673516,58.243919,7667.729798,45.0,1.049018,0.832521,71.615949,27.0,90.0,0.0,0.0,-0.8293682543893242,0.0,-1.1702440839938555,0.0,-2.37807625167509,0.0,-31.389307859896086,0.0,-3.7708554408432584,0.0,-5.885864743361569,0.0,-7.990982428227402,0.0,-38.871667699937994,0.0,-1.391982688220988,0.0,-2.3496094599938906,0.0,-4.350197437839895,0.0,-13.718411552346566,False
2.807163,2.224847,161.241997,25.0,71.81941,55.376905,7336.710282,42.0,1.066966,0.847798,73.506377,26.0,90.0,0.0,0.0,-0.611745914593663,0.0,-1.022082826555957,0.0,-2.118125584300854,0.0,-17.311882017764365,0.0,-5.2575647483538654,0.0,-7.689951672056412,0.0,-10.101747941960165,0.0,-90.94854308741475,0.0,-1.343508408493627,0.0,-2.27586757094963,0.0,-4.148160433266515,0.0,-17.930204572803845,False
2.996622,2.334723,173.206713,25.0,79.658096,58.330714,7919.149006,41.0,1.189887,0.963627,79.727535,27.0,90.0,0.0,0.0,-0.40894165848528174,0.0,-0.8256808585720931,0.0,-1.7107149528500627,0.0,-17.311882017764365,0.0,-1.174378127095552,0.0,-5.831248433508854,0.0,-6.3877929844472865,0.0,-108.30750154990699,0.0,-1.0115211710093988,0.0,-1.7167624281789549,0.0,-3.483282359466447,0.0,-13.718411552346566,False
2.992708,2.347028,175.192143,25.0,88.096279,63.050301,8759.48706,42.0,1.31343,1.028798,80.601997,28.0,90.0,0.0,0.0,-0.4131313557728648,0.0,-0.8036858258439136,0.0,-1.6431090614940678,0.0,-17.311882017764365,3.2210876350652664,3.2210876350652664,0.0,-2.8614180749762097,0.0,-1.0293277021148126,0.0,-90.94854308741475,0.0,-0.6778540247893542,0.0,-1.4021828215216607,0.0,-3.3898253840655084,0.0,-9.506618531889286,False
3.936994,2.734994,190.253654,25.0,92.853317,68.255893,9311.38572,41.0,1.39313,1.072324,84.696474,28.0,90.0,0.0,0.5976689745548531,0.5976689745548531,0.0,-0.11020148066545968,0.0,-1.13024944099718,0.0,-17.311882017764365,5.699037883157542,5.699037883157542,0.41423404368050415,0.41423404368050415,2.489886731765649,2.489886731765649,0.0,-108.30750154990699,0.0,-0.46259883790108464,0.0,-1.192083360728281,0.0,-2.952233543289453,0.0,-9.506618531889286,False
4.997202,3.401581,239.244986,26.0,95.146563,68.203784,9540.611045,40.0,1.379967,1.077199,83.508494,26.0,90.0,0.0,1.7325567062548772,1.7325567062548772,1.0813143975286867,1.0813143975286867,0.5379547609024162,0.5379547609024162,0.0,-12.61940673705379,6.893594137414205,6.893594137414205,0.38144412156384816,0.38144412156384816,3.9515555684882036,3.9515555684882036,0.0,-125.66646001239926,0.0,-0.4981497039614398,0.0,-1.1685517963445171,0.0,-3.079197342330243,0.0,-17.930204572803845,False
5.166019,3.652241,257.070388,27.0,94.376124,66.563755,9116.355747,39.0,1.471587,1.129233,87.10938,26.0,90.0,0.0,1.9132649655798435,1.9132649655798435,1.5293659947367697,1.5293659947367697,1.1449276539225408,1.1449276539225408,0.0,-7.926931456343215,6.49227097977074,6.49227097977074,0.0,-0.6505546344870378,1.2462665787090752,1.2462665787090752,0.0,-143.0254184748915,0.0,-0.2507007676665428,0.0,-0.9173843253404569,0.0,-2.694357390081219,0.0,-17.930204572803845,False
5.170841,3.664472,260.116357,27.0,89.970718,61.896052,8476.12122,40.0,1.536866,1.165568,89.722947,25.0,90.0,0.0,1.9184266212570855,1.9184266212570855,1.551228753395718,1.551228753395718,1.2486459664733394,1.2486459664733394,0.0,-7.926931456343215,4.197486517118311,4.197486517118311,0.0,-3.587736653594624,0.0,-2.836226733536007,0.0,-125.66646001239926,0.0,-0.07439407576090433,0.0,-0.7419957321334666,0.0,-2.415035856580957,0.0,-22.141997593261127,False
5.228017,3.769617,268.10115,27.0,87.031099,59.828096,8119.221893,42.0,1.748187,1.307263,95.018287,25.0,90.0,0.0,1.9796300275204608,1.9796300275204608,1.7391741183859202,1.7391741183859202,1.5205362109332883,1.5205362109332883,0.0,-7.926931456343215,2.666233323356401,2.666233323356401,0.0,-4.889011216159044,0.0,-5.112016392131345,0.0,-90.94854308741475,0.4963454643697863,0.4963454643697863,0.0,-0.0580357289832116,0.0,-1.8491033630939804,0.0,-22.141997593261127,False
5.251476,3.826253,275.395751,26.0,86.803242,60.019314,8131.292442,41.0,2.072279,1.563923,104.668016,24.0,90.0,0.0,2.004741450277081,2.004741450277081,1.8404102560204725,1.8404102560204725,1.7689247225863496,1.7689247225863496,0.0,-12.61940673705379,2.5475421735948136,2.5475421735948136,0.0,-4.768686064509568,0.0,-5.03504782281889,0.0,-108.30750154990699,1.3716589402668147,1.3716589402668147,1.1808588996807794,1.1808588996807794,0.0,-0.8178012758921037,0.0,-26.35379061371841,False
5.230903,3.771184,275.68137,27.0,89.826518,63.081284,8562.497702,40.0,4.406334,2.480883,144.752624,23.0,90.0,0.0,1.9827193137677686,1.9827193137677686,1.7419751111762534,1.7419751111762534,1.7786503372306373,1.7786503372306373,0.0,-7.926931456343215,4.122372459636548,4.122372459636548,0.0,-2.8419218237155772,0.0,-2.2854419894632194,0.0,-125.66646001239926,7.675516471414879,7.675516471414879,5.607013418108792,5.607013418108792,3.4661884501477758,3.4661884501477758,0.0,-30.565583634175685,False
5.237033,3.750125,273.082938,26.0,90.220725,64.636752,8684.638129,41.0,11.119482,5.021633,271.224546,21.0,90.0,0.0,1.9892811033367226,1.9892811033367226,1.7043324135555524,1.7043324135555524,1.690171110318612,1.690171110318612,0.0,-12.61940673705379,4.3277156445027885,4.3277156445027885,0.0,-1.863133618703979,0.0,-1.5066063357243191,0.0,-108.30750154990699,25.806506776918205,25.806506776918205,17.871182076170182,17.871182076170182,16.98270866859464,16.98270866859464,0.0,-38.989169675090245,False
5.35739,3.878375,287.099426,27.0,89.430241,63.779801,8700.422335,41.0,12.38062,6.272913,313.333987,18.0,90.0,0.0,2.118115900588035,2.118115900588035,1.9335776754319454,1.9335776754319454,2.167446645049434,2.167446645049434,0.0,-7.926931456343215,3.915951007787045,3.915951007787045,0.0,-2.402375526009622,0.0,-1.4059574129990184,0.0,-108.30750154990699,29.21261086577515,29.21261086577515,23.911095077630012,23.911095077630012,21.48309975669715,21.48309975669715,0.0,-51.62454873646208,False
5.550075,4.038749,295.005135,27.0,95.750741,70.482349,9420.022871,45.0,12.771214,6.958787,324.206467,16.0,90.0,0.0,2.324373392120469,2.324373392120469,2.220244183253892,2.220244183253892,2.436643999650763,2.436643999650763,0.0,-7.926931456343215,7.208311620224286,7.208311620224286,1.8152457467674812,1.8152457467674812,3.182617947773397,3.182617947773397,0.0,-38.871667699937994,30.26753413387348,30.26753413387348,27.221800347404372,27.221800347404372,22.64508174780391,22.64508174780391,0.0,-60.048134777376646,False
5.605182,4.098107,292.788762,25.0,88.93481,67.1189,8902.354973,45.0,12.799603,7.083466,323.721525,15.0,90.0,0.0,2.3833620605994787,2.3833620605994787,2.326345861651232,2.326345861651232,2.3611742665237525,2.3611742665237525,0.0,-17.311882017764365,3.657880046537084,3.657880046537084,0.0,-0.30122608637729975,0.0,-0.11832200848262034,0.0,-38.871667699937994,30.344207653328574,30.344207653328574,27.823624330133264,27.823624330133264,22.59325420976923,22.59325420976923,0.0,-64.25992779783392,False
5.956724,4.483237,306.935033,23.0,80.635001,61.971208,8154.16034,45.0,12.786491,7.0254,314.078856,13.0,90.0,0.0,2.7596662414557733,2.7596662414557733,3.014760892500786,3.014760892500786,2.8428690431305683,2.8428690431305683,0.0,-26.696832579185514,0.0,-0.6655064327528567,0.0,-3.5404442590639422,0.0,-4.889229319265887,0.0,-38.871667699937994,30.308794528981288,30.308794528981288,27.543340470131696,27.543340470131696,21.56270665077593,21.56270665077593,0.0,-72.6835138387485,False
5.335895,4.036166,282.99178,24.0,79.729273,61.379175,7899.483888,45.0,12.774811,6.929434,309.751234,14.0,90.0,0.0,2.0951068195464924,2.0951068195464924,2.215627103242767,2.215627103242767,2.0275771612575655,2.0275771612575655,0.0,-22.00435729847494,0.0,-1.1373018908307841,0.0,-3.912984817518137,0.0,-6.51318877198111,0.0,-38.871667699937994,30.277248975871434,30.277248975871434,27.080113781382497,27.080113781382497,21.100197744958916,21.100197744958916,0.0,-68.4717208182912,False
5.066008,3.964879,278.385847,25.0,77.726506,62.24643,7974.824827,46.0,13.135007,7.404432,328.977762,13.0,90.0,0.0,1.8062093152404275,1.8062093152404275,2.0882024873879335,2.0882024873879335,1.870740503208178,1.870740503208178,0.0,-17.311882017764365,0.0,-2.1805470750233487,0.0,-3.3672590521939196,0.0,-6.032772820271952,0.0,-21.512709237445744,31.25007278134706,31.25007278134706,29.372923221210044,29.372923221210044,23.155007621593306,23.155007621593306,0.0,-72.6835138387485,False
5.113746,4.001078,277.618232,23.0,77.850759,63.23487,8173.388661,47.0,13.954267,8.476628,360.918319,12.0,90.0,0.0,1.8573099205328754,1.8573099205328754,2.1529077445782923,2.1529077445782923,1.8446024392657399,1.8446024392657399,0.0,-26.696832579185514,0.0,-2.115823448225287,0.0,-2.745276849177422,0.0,-4.766618793626115,0.0,-4.153750774953496,33.4627448567559,33.4627448567559,34.54839998141817,34.54839998141817,26.568612615110798,26.568612615110798,0.0,-76.89530685920577,False
5.633412,4.51821,296.987663,22.0,83.424681,67.873296,8657.18994,46.0,14.292618,9.108231,399.261936,11.0,90.0,0.0,2.413580546656829,2.413580546656829,3.077274690111726,3.077274690111726,2.5041510749836733,2.5041510749836733,0.0,-31.389307859896086,0.7876432473838288,0.7876432473838288,0.1734824301000093,0.1734824301000093,0.0,-1.6816313356268031,0.0,-21.512709237445744,34.376569295135226,34.376569295135226,37.59713980900355,37.59713980900355,30.66653621928345,30.66653621928345,0.0,-81.10709987966305,False
5.773844,4.688785,312.18779,21.0,99.783024,76.258872,9716.766085,45.0,14.561319,9.719055,420.99381,11.0,90.0,0.0,2.5639044019173993,2.5639044019173993,3.382175357125885,3.382175357125885,3.0217307099037347,3.0217307099037347,0.0,-36.08178314060666,9.308735594182078,9.308735594182078,5.4501598551761345,5.4501598551761345,5.074818595379386,5.074818595379386,0.0,-38.871667699937994,35.10228176655386,35.10228176655386,40.545579661957085,40.545579661957085,32.98910165246901,32.98910165246901,0.0,-81.10709987966305,False
5.785778,4.705692,314.93108,21.0,101.330887,77.633791,10041.732109,48.0,14.574922,9.744005,436.802874,12.0,90.0,0.0,2.576679018021133,2.576679018021133,3.4123964069702835,3.4123964069702835,3.115142497626288,3.115142497626288,0.0,-36.08178314060666,10.11502040941014,10.11502040941014,6.315336445145419,6.315336445145419,7.1469836594901555,7.1469836594901555,13.205207687538753,13.205207687538753,35.139020992491645,35.139020992491645,40.66601300172629,40.66601300172629,34.67867456170906,34.67867456170906,0.0,-76.89530685920577,False
5.890807,4.896724,319.691634,22.0,99.959818,75.776793,9836.744646,45.0,12.54378,8.580173,381.344701,13.0,90.0,0.0,2.6891061300337964,2.6891061300337964,3.7538637041770753,3.7538637041770753,3.277244156470142,3.277244156470142,0.0,-31.389307859896086,9.40082792898395,9.40082792898395,5.146808555706275,5.146808555706275,5.839868982759212,5.839868982759212,0.0,-38.871667699937994,29.653276314867878,29.653276314867878,35.04821040892933,35.04821040892933,28.751655308909026,28.751655308909026,0.0,-72.6835138387485,False
6.049929,5.011483,322.635223,22.0,99.496344,74.38757,9743.123569,45.0,9.456048,6.927408,339.827717,15.0,90.0,0.0,2.8594364856277656,2.8594364856277656,3.9589939732427517,3.9589939732427517,3.3774763268970527,3.3774763268970527,0.0,-31.389307859896086,9.15940343052833,9.15940343052833,4.272631082090087,4.272631082090087,5.2428886503666075,5.2428886503666075,0.0,-38.871667699937994,21.3138744488592,21.3138744488592,27.070334304573983,27.070334304573983,24.314582282969443,24.314582282969443,0.0,-64.25992779783392,False
6.117293,5.086682,330.497345,22.0,101.914899,76.344985,10003.973571,47.0,8.437245,6.188782,322.578715,16.0,90.0,0.0,2.931545521928417,2.931545521928417,4.093411239892599,4.093411239892599,3.645189500244682,3.645189500244682,0.0,-31.389307859896086,10.419233384015108,10.419233384015108,5.504347012159217,5.504347012159217,6.906214109638695,6.906214109638695,0.0,-4.153750774953496,18.562273066584048,18.562273066584048,23.50499578672325,23.50499578672325,22.47111789503177,22.47111789503177,0.0,-60.048134777376646,False
5.888799,4.854923,322.904389,21.0,98.743682,73.960624,9816.840441,47.0,8.276922,6.104819,342.211082,17.0,90.0,0.0,2.6869566890134933,2.6869566890134933,3.6791449424484597,3.6791449424484597,3.386641700318793,3.386641700318793,0.0,-36.08178314060666,8.767340346392867,8.767340346392867,4.003972576111899,4.003972576111899,5.712948642835009,5.712948642835009,0.0,-4.153750774953496,18.129269837882816,18.129269837882816,23.09970742972755,23.09970742972755,24.56930128068056,24.56930128068056,0.0,-55.836341756919374,False
5.734227,4.741324,326.515577,24.0,102.426645,76.859488,10324.333074,48.0,8.41177,6.323341,372.500875,18.0,90.0,0.0,2.52149682975537,2.52149682975537,3.4760881587923462,3.4760881587923462,3.5096062891454336,3.5096062891454336,0.0,-22.00435729847494,10.68580286015976,10.68580286015976,5.828101321372318,5.828101321372318,8.949005420254249,8.949005420254249,13.205207687538753,13.205207687538753,18.493469730498997,18.493469730498997,24.15451040660324,24.15451040660324,27.806483044211205,27.806483044211205,0.0,-51.62454873646208,False
5.588793,4.591876,323.535122,24.0,103.591568,77.625231,10453.098672,48.0,8.599748,6.701858,405.260432,20.0,90.0,0.0,2.3658186398416348,2.3658186398416348,3.208951738543589,3.208951738543589,3.4081187942846562,3.4081187942846562,0.0,-22.00435729847494,11.292613492502488,11.292613492502488,6.309950010300791,6.309950010300791,9.770086868556458,9.770086868556458,13.205207687538753,13.205207687538753,19.001164078314343,19.001164078314343,25.98160725908515,25.98160725908515,31.307617584871245,31.307617584871245,0.0,-43.20096269554753,False
5.447818,4.471732,310.381241,23.0,107.997167,79.562467,10181.397389,45.0,8.780225,7.130837,434.603977,21.0,90.0,0.0,2.214913536337029,2.214913536337029,2.9941958497102377,2.9941958497102377,2.9602158967784753,2.9602158967784753,0.0,-26.696832579185514,13.58749848922631,13.58749848922631,7.528968175331406,7.528968175331406,8.037567574457356,8.037567574457356,0.0,-38.871667699937994,19.48859959103748,19.48859959103748,28.05228355811753,28.05228355811753,34.443670338726015,34.443670338726015,0.0,-38.989169675090245,False
4.934608,4.007987,295.136212,24.0,107.779771,78.555247,10370.342995,46.0,8.465795,7.087655,421.632937,21.0,90.0,0.0,1.6655536628162018,1.6655536628162018,2.165257495177154,2.165257495177154,2.44110730353016,2.44110730353016,0.0,-22.00435729847494,13.474256494494652,13.474256494494652,6.895168536989902,6.895168536989902,9.242390401629095,9.242390401629095,0.0,-21.512709237445744,18.639381417721562,18.639381417721562,27.843844581046824,27.843844581046824,33.05740750946117,33.05740750946117,0.0,-38.989169675090245,False
4.740298,3.767113,277.491676,24.0,108.658523,79.184874,10203.379019,43.0,7.086184,6.18873,417.741656,22.0,90.0,0.0,1.4575567083066798,1.4575567083066798,1.7346982498811365,1.7346982498811365,1.840293079990193,1.840293079990193,0.0,-22.00435729847494,13.932000102263101,13.932000102263101,7.291365360811952,7.291365360811952,8.177734737711967,8.177734737711967,0.0,-73.5895846249225,14.913303329414,14.913303329414,23.50474478336982,23.50474478336982,32.641531973765915,32.641531973765915,0.0,-34.77737665463297,False
4.180962,3.3085,250.020203,25.0,105.982058,77.038295,10172.923422,44.0,6.647394,5.890707,416.941531,24.0,90.0,0.0,0.8588217767666755,0.8588217767666755,0.914933280797953,0.914933280797953,0.9048617532613901,0.9048617532613901,0.0,-17.311882017764365,12.53782433348423,12.53782433348423,5.9406167717535,5.9406167717535,7.983532822898754,7.983532822898754,0.0,-56.23062616243024,13.728211441651089,13.728211441651089,22.066191468017493,22.066191468017493,32.55601966740763,32.55601966740763,0.0,-26.35379061371841,False
4.092091,3.255772,252.622462,26.0,90.36675,68.401223,8768.191944,43.0,6.256014,5.544465,415.502112,24.0,90.0,0.0,0.7636908141594201,0.7636908141594201,0.8206826440087251,0.8206826440087251,0.9934712933782224,0.9934712933782224,0.0,-12.61940673705379,4.403780347996362,4.403780347996362,0.5056838773217853,0.5056838773217853,0.0,-0.9738204946538317,0.0,-73.5895846249225,12.671165330680815,12.671165330680815,20.39488563922501,20.39488563922501,32.402183656151976,32.402183656151976,0.0,-26.35379061371841,False
4.334215,3.487803,272.644089,25.0,91.64241,69.698195,8666.122266,40.0,6.306088,5.584435,417.281151,25.0,90.0,0.0,1.022869727306781,1.022869727306781,1.23543513803166,1.23543513803166,1.6752278598309653,1.6752278598309653,0.0,-17.311882017764365,5.068274096728533,5.068274096728533,1.3218118181282146,1.3218118181282146,0.0,-1.6246738308063964,0.0,-125.66646001239926,12.806406086367678,12.806406086367678,20.587820332234053,20.587820332234053,32.59231610794555,32.59231610794555,0.0,-22.141997593261127,False
4.400987,3.552749,282.796457,25.0,91.288619,69.974872,8829.391987,41.0,6.154803,5.435095,409.119163,25.0,90.0,0.0,1.0943450638643935,1.0943450638643935,1.3515252961433497,1.3515252961433497,2.020926216365361,2.020926216365361,0.0,-17.311882017764365,4.88398368403416,4.88398368403416,1.4959125930705468,1.4959125930705468,0.0,-0.5835748023020743,0.0,-108.30750154990699,12.397812849875937,12.397812849875937,19.866958009142486,19.866958009142486,31.720014382154428,31.720014382154428,0.0,-22.141997593261127,False
4.378879,3.564112,282.426245,25.0,92.336259,70.075447,8829.498919,41.0,5.848881,5.137058,388.980227,25.0,90.0,0.0,1.070679803865956,1.070679803865956,1.3718365157199697,1.3718365157199697,2.008320124863427,2.008320124863427,0.0,-17.311882017764365,5.429701375991086,5.429701375991086,1.5592000562128507,1.5592000562128507,0.0,-0.5828929440822348,0.0,-108.30750154990699,11.57157323528079,11.57157323528079,18.428337115964236,18.428337115964236,29.567692101308502,29.567692101308502,0.0,-22.141997593261127,False
4.162787,3.406291,270.01903,25.0,96.810127,73.159032,8728.170333,39.0,5.752467,5.047334,385.385686,25.0,90.0,0.0,0.8393665523921675,0.8393665523921675,1.089733463286486,1.089733463286486,1.5858419567484694,1.5858419567484694,0.0,-17.311882017764365,7.760147826183846,7.760147826183846,3.4995656742459302,3.4995656742459302,0.0,-1.2290206632832488,0.0,-143.0254184748915,11.311176577957758,11.311176577957758,17.99524048360139,17.99524048360139,29.183530262584046,29.183530262584046,0.0,-22.141997593261127,False
4.182173,3.457655,264.050211,25.0,97.674807,73.874994,8431.47386,36.0,5.590614,4.90502,373.248504,25.0,90.0,0.0,0.8601180780991388,0.8601180780991388,1.1815459672320536,1.1815459672320536,1.3825976576104475,1.3825976576104475,0.0,-17.311882017764365,8.210561302073769,8.210561302073769,3.950089349973439,3.950089349973439,0.0,-3.120923264139397,0.0,-195.10229386236824,10.874041097864568,10.874041097864568,17.308292575147846,17.308292575147846,27.886384909657654,27.886384909657654,0.0,-22.141997593261127,False
4.008,3.287357,248.469376,24.0,94.433579,71.175344,8151.6593,36.0,5.408748,4.709762,359.296446,25.0,90.0,0.0,0.6736765488016916,0.6736765488016916,0.8771404342338005,0.8771404342338005,0.8520545318161895,0.8520545318161895,0.0,-22.00435729847494,6.522199399830473,6.522199399830473,2.2513172905935237,2.2513172905935237,0.0,-4.905177348688014,0.0,-195.10229386236824,10.382854149073827,10.382854149073827,16.365784637005266,16.365784637005266,26.395277072726515,26.395277072726515,0.0,-22.141997593261127,False
4.096328,3.378352,248.628257,24.0,89.122635,68.795207,7994.635011,39.0,5.274248,4.588364,346.243706,24.0,90.0,0.0,0.7682262631649104,0.7682262631649104,1.039792852202162,1.039792852202162,0.857464589901607,0.857464589901607,0.0,-22.00435729847494,3.7557184504657344,3.7557184504657344,0.7536008336097265,0.7536008336097265,0.0,-5.906452010812789,0.0,-143.0254184748915,10.019594141087977,10.019594141087977,15.779798000480094,15.779798000480094,25.000282663484196,25.000282663484196,0.0,-26.35379061371841,False
4.141463,3.42039,250.295652,24.0,87.437957,68.53491,8002.08501,39.0,5.139755,4.477184,337.951858,24.0,90.0,0.0,0.8165405163777524,0.8165405163777524,1.1149352484498016,1.1149352484498016,0.9142410691617827,0.9142410691617827,0.0,-22.00435729847494,2.878166438466754,2.878166438466754,0.5898072786154024,0.5898072786154024,0.0,-5.858946651743438,0.0,-143.0254184748915,9.656353038827447,9.656353038827447,15.24313352290329,15.24313352290329,24.11410232109731,24.11410232109731,0.0,-26.35379061371841,False
4.116144,3.33781,252.922868,26.0,87.559492,69.623612,8239.372884,40.0,4.86115,4.227472,322.297404,24.0,90.0,0.0,0.7894380775365886,0.7894380775365886,0.9673245371378916,0.9673245371378916,1.0037004202669506,1.0037004202669506,0.0,-12.61940673705379,2.9414742538346186,2.9414742538346186,1.274879987518788,1.274879987518788,0.0,-4.345866494662411,0.0,-125.66646001239926,8.903891666895122,8.903891666895122,14.037776803847171,14.037776803847171,22.441053152130408,22.441053152130408,0.0,-26.35379061371841,False
4.444472,3.706325,267.951256,25.0,90.570858,73.235915,8594.762972,41.0,4.680991,4.064588,304.718343,24.0,90.0,0.0,1.1408930931312695,1.1408930931312695,1.626040464470281,1.626040464470281,1.5154321692501684,1.5154321692501684,0.0,-17.311882017764365,4.51010059795813,4.51010059795813,3.5479447945916496,3.5479447945916496,0.0,-2.0797005877771753,0.0,-108.30750154990699,8.41731501426521,8.41731501426521,13.251537761163053,13.251537761163053,20.562314142946928,20.562314142946928,0.0,-26.35379061371841,False
4.676484,3.928026,279.585619,24.0,91.232267,73.474772,8920.681735,44.0,4.704313,4.076433,297.423146,23.0,90.0,0.0,1.3892477295867445,1.3892477295867445,2.0223282134235614,2.0223282134235614,1.9115939482976376,1.9115939482976376,0.0,-22.00435729847494,4.854629818796904,4.854629818796904,3.69824709221812,3.69824709221812,0.0,-0.0014603271067424397,0.0,-56.23062616243024,8.480303489404587,8.480303489404587,13.308713428881145,13.308713428881145,19.782649564527276,19.782649564527276,0.0,-30.565583634175685,False
4.733746,3.95415,287.021801,24.0,94.712866,77.039454,9395.864005,45.0,4.616748,3.998282,293.763429,23.0,90.0,0.0,1.4505431935830606,1.4505431935830606,2.0690245348368856,2.0690245348368856,2.1648034356104158,2.1648034356104158,0.0,-22.00435729847494,6.667680535557994,6.667680535557994,5.941346079929309,5.941346079929309,3.0285675104460394,3.0285675104460394,0.0,-38.871667699937994,8.24380636970733,8.24380636970733,12.931479523618464,12.931479523618464,19.391522126578685,19.391522126578685,0.0,-30.565583634175685,False
4.513454,3.770685,272.565343,24.0,95.719619,78.130558,9448.867691,47.0,4.474105,3.9014,285.486538,23.0,90.0,0.0,1.2147340993377225,1.2147340993377225,1.7410831549526562,1.7410831549526562,1.6725464792128018,1.6725464792128018,0.0,-22.00435729847494,7.192100110536713,7.192100110536713,6.627930262722499,6.627930262722499,3.3665486478165625,3.3665486478165625,0.0,-4.153750774953496,7.858553601535391,7.858553601535391,12.463831314258904,12.463831314258904,18.50694029388241,18.50694029388241,0.0,-30.565583634175685,False
4.30046,3.596294,260.095457,24.0,97.609318,80.421785,9488.631877,47.0,4.360093,3.773953,277.834949,24.0,90.0,0.0,0.9867370671273308,0.9867370671273308,1.4293614359360007,1.4293614359360007,1.247934300421482,1.247934300421482,0.0,-22.00435729847494,8.176447955954332,8.176447955954332,8.069699532552614,8.069699532552614,3.6201073307144482,3.6201073307144482,0.0,-4.153750774953496,7.550627950751133,7.550627950751133,11.848646229947597,11.848646229947597,17.68918678949789,17.68918678949789,0.0,-26.35379061371841,False
4.133359,3.450538,248.674026,24.0,95.352929,79.473591,9550.82045,48.0,4.339935,3.740823,268.483899,24.0,90.0,0.0,0.8078656807061695,0.8078656807061695,1.168824419249408,1.168824419249408,0.8590230704531616,0.8590230704531616,0.0,-22.00435729847494,7.0010905839210045,7.0010905839210045,7.473042382895555,7.473042382895555,4.016656443053345,4.016656443053345,13.205207687538753,13.205207687538753,7.49618486345761,7.49618486345761,11.688728131889318,11.688728131889318,16.689805627339958,16.689805627339958,0.0,-26.35379061371841,False
4.200066,3.528392,252.425833,24.0,88.713499,75.233606,9350.500238,49.0,4.243127,3.608859,257.068914,25.0,90.0,0.0,0.8792714387446993,0.8792714387446993,1.307987465004767,1.307987465004767,0.9867758778705297,0.9867758778705297,0.0,-22.00435729847494,3.54259872077186,3.54259872077186,4.805004655712423,4.805004655712423,2.739302768252996,2.739302768252996,30.564166150031003,30.564166150031003,7.234724083880703,7.234724083880703,11.05173954474284,11.05173954474284,15.469844128330179,15.469844128330179,0.0,-22.141997593261127,False
4.108183,3.392997,246.262425,24.0,88.186662,74.706434,9429.129707,50.0,4.332514,3.669499,256.107273,25.0,90.0,0.0,0.78091631460699,0.78091631460699,1.0659706054979106,1.0659706054979106,0.7769056272796376,0.7769056272796376,0.0,-22.00435729847494,3.2681683136878323,3.2681683136878323,4.473278297078002,4.473278297078002,3.2406882259258847,3.2406882259258847,47.92312461252325,47.92312461252325,7.476142093797662,7.476142093797662,11.344448070739041,11.344448070739041,15.367070012037493,15.367070012037493,0.0,-22.141997593261127,False
4.291898,3.55685,256.73225,23.0,87.178655,74.415588,9243.430842,50.0,4.437944,3.761976,243.131389,22.0,90.0,0.0,0.9775719705058978,0.9775719705058978,1.358855782061128,1.358855782061128,1.1334137144276553,1.1334137144276553,0.0,-26.696832579185514,2.7430955276960605,2.7430955276960605,4.290261588103723,4.290261588103723,2.056568434688814,2.056568434688814,47.92312461252325,47.92312461252325,7.7608893253363105,7.7608893253363105,11.79083339987081,11.79083339987081,13.980289486647665,13.980289486647665,0.0,-34.77737665463297,False
4.169947,3.394917,252.589047,24.0,87.176926,75.410978,9155.134258,49.0,4.407585,3.749951,236.597812,22.0,90.0,0.0,0.847030893878906,0.847030893878906,1.0694025813482242,1.0694025813482242,0.9923334789704306,0.9923334789704306,0.0,-22.00435729847494,2.742194888268967,2.742194888268967,4.91661712314944,4.91661712314944,1.493540046696103,1.493540046696103,30.564166150031003,30.564166150031003,7.678895194611833,7.678895194611833,11.732788874390856,11.732788874390856,13.282022043386387,13.282022043386387,0.0,-34.77737665463297,False
4.385978,3.599677,263.734632,23.0,86.000659,73.504886,9042.102049,50.0,4.405049,3.713841,232.511019,22.0,90.0,0.0,1.078278848588631,1.078278848588631,1.4354085058847559,1.4354085058847559,1.3718518747884723,1.3718518747884723,0.0,-26.696832579185514,2.1294751444971616,2.1294751444971616,3.7171965196609964,3.7171965196609964,0.772783483514385,0.772783483514385,47.92312461252325,47.92312461252325,7.6720459204092135,7.6720459204092135,11.558486353386192,11.558486353386192,12.84525141999769,12.84525141999769,0.0,-34.77737665463297,False
4.498,3.790461,270.069257,23.0,84.191718,71.636777,8749.271354,50.0,4.435694,3.744339,228.459115,22.0,90.0,0.0,1.1981915388159265,1.1981915388159265,1.7764325062108832,1.7764325062108832,1.5875522366904156,1.5875522366904156,0.0,-26.696832579185514,1.1871942966808748,1.1871942966808748,2.5416769622827613,2.5416769622827613,0.0,-1.0944687553789678,47.92312461252325,47.92312461252325,7.754812485054019,7.754812485054019,11.705699820171025,11.705699820171025,12.412209512567786,12.412209512567786,0.0,-34.77737665463297,False
4.308423,3.627002,268.994889,24.0,84.078897,71.274383,8526.758477,48.0,4.371932,3.689977,237.778008,23.0,90.0,0.0,0.9952609709344399,0.9952609709344399,1.4842515996919488,1.4842515996919488,1.5509689241161329,1.5509689241161329,0.0,-22.00435729847494,1.1284256206812278,1.1284256206812278,2.3136382158945574,2.3136382158945574,0.0,-2.5133352705878838,13.205207687538753,13.205207687538753,7.582602933907598,7.582602933907598,11.443295122113547,11.443295122113547,13.408153937671429,13.408153937671429,0.0,-30.565583634175685,False
4.091196,3.491618,259.838939,25.0,80.952427,67.584043,7853.60735,45.0,4.08071,3.449934,225.119727,24.0,90.0,0.0,0.7627327714735779,0.7627327714735779,1.2422544025467352,1.2422544025467352,1.2391996041396391,1.2391996041396391,0.0,-17.311882017764365,0.0,-0.5001586185350743,0.0,-0.008531873417787925,0.0,-6.805723228770811,0.0,-38.871667699937994,6.796065342490085,6.796065342490085,10.284610545832122,10.284610545832122,12.05531681492033,12.05531681492033,0.0,-26.35379061371841,False
4.029168,3.448818,254.288447,25.0,79.032101,67.610758,7858.420561,45.0,3.929135,3.337103,216.128499,24.0,90.0,0.0,0.6963355963703068,0.6963355963703068,1.1657499408835028,1.1657499408835028,1.0501997607181524,1.0501997607181524,0.0,-17.311882017764365,0.0,-1.5004601271877374,0.008278711497423819,0.008278711497423819,0.0,-6.775031504271042,0.0,-38.871667699937994,6.386688868806403,6.386688868806403,9.739976711784017,9.739976711784017,11.09439115546316,11.09439115546316,0.0,-26.35379061371841,False
4.080294,3.497466,257.084289,25.0,72.80013,62.928568,7487.279557,46.0,3.883584,3.313295,218.91007,24.0,90.0,0.0,0.751062848165139,0.751062848165139,1.252707628990815,1.252707628990815,1.1454009969745458,1.1454009969745458,0.0,-17.311882017764365,0.0,-4.746705813170032,0.0,-2.9380193451795664,0.0,-9.141634058228474,0.0,-21.512709237445744,6.263663912495894,6.263663912495894,9.625055791815061,9.625055791815061,11.391667895359191,11.391667895359191,0.0,-26.35379061371841,False
4.006843,3.392693,247.741417,24.0,75.480583,65.125725,7682.965873,45.0,3.865548,3.299098,221.010412,24.0,90.0,0.0,0.6724380511620048,0.6724380511620048,1.065427209321611,1.065427209321611,0.8272667946178903,0.8272667946178903,0.0,-22.00435729847494,0.0,-3.350452687517121,0.0,-1.5554442255636922,0.0,-7.893828695229237,0.0,-38.871667699937994,6.214951960793048,6.214951960793048,9.556527049341971,9.556527049341971,11.61613918242205,11.61613918242205,0.0,-26.35379061371841,False
3.945717,3.336848,241.345158,24.0,75.925383,65.228191,7791.644447,46.0,3.85123,3.304058,224.751423,24.0,90.0,0.0,0.6070064118158619,0.6070064118158619,0.9656049742378903,0.9656049742378903,0.6094677329341188,0.6094677329341188,0.0,-22.00435729847494,0.0,-3.1187555115955825,0.0,-1.4909668385555952,0.0,-7.200833343013047,0.0,-21.512709237445744,6.17628165005445,6.17628165005445,9.580468907668838,9.580468907668838,12.015954809632428,12.015954809632428,0.0,-26.35379061371841,False
3.751733,3.107805,227.529953,26.0,73.247854,62.714264,7408.766965,45.0,3.867195,3.330466,222.801737,22.0,90.0,0.0,0.39935842034051233,0.39935842034051233,0.556193492632006,0.556193492632006,0.13904608709880453,0.13904608709880453,0.0,-12.61940673705379,0.0,-4.5134855200218835,0.0,-3.072871510242945,0.0,-9.642274242801069,0.0,-38.871667699937994,6.219400207879685,6.219400207879685,9.707939995309134,9.707939995309134,11.807584684296444,11.807584684296444,0.0,-34.77737665463297,False
3.751972,3.128075,226.321216,27.0,73.357549,62.87402,7380.951986,45.0,3.475514,3.039381,217.531037,23.0,90.0,0.0,0.3996142552029882,0.3996142552029882,0.5924258626767194,0.5924258626767194,0.09788737472920547,0.09788737472920547,0.0,-7.926931456343215,0.0,-4.456345183437546,0.0,-2.972344023673094,0.0,-9.819638100823266,0.0,-38.871667699937994,5.161541150720533,5.161541150720533,8.302876319689023,8.302876319689023,11.24428555838162,11.24428555838162,0.0,-30.565583634175685,False
3.573795,2.985203,222.374185,27.0,74.058592,62.756379,7613.649424,45.0,3.386575,2.956719,218.658801,24.0,90.0,0.0,0.20888668912999597,0.20888668912999597,0.3370439597152842,0.3370439597152842,0.0,-0.03651300653064542,0.0,-7.926931456343215,0.0,-4.0911705357316945,0.0,-3.0463703766586696,0.0,-8.335829130283996,0.0,-38.871667699937994,4.921333107224224,4.921333107224224,7.903867873516567,7.903867873516567,11.364813851670597,11.364813851670597,0.0,-26.35379061371841,False
3.462503,2.893454,212.869419,27.0,71.871365,60.052473,7392.760871,46.0,3.345402,2.909518,215.377935,24.0,90.0,0.0,0.08975541919394632,0.08975541919394632,0.17304377623070644,0.17304377623070644,0.0,-0.36015986265761185,0.0,-7.926931456343215,0.0,-5.230501288877693,0.0,-4.747820551307126,0.0,-9.744338047476452,0.0,-21.512709237445744,4.810132331694102,4.810132331694102,7.6760292334185,7.6760292334185,11.014175615754368,11.014175615754368,0.0,-26.35379061371841,False
3.112171,2.616547,200.079955,27.0,75.56052,62.799029,7832.352033,45.0,3.156331,2.79158,212.695895,24.0,90.0,0.0,0.0,-0.28525353076863913,0.0,-0.32192400334361226,0.0,-0.7956539942489632,0.0,-7.926931456343215,0.0,-3.308813350395628,0.0,-3.0195325908966097,0.0,-6.941259014241109,0.0,-38.871667699937994,4.2994859899105125,4.2994859899105125,7.106743973871343,7.106743973871343,10.727536120494042,10.727536120494042,0.0,-26.35379061371841,False
2.957828,2.470318,192.309492,28.0,75.81559,62.712585,7663.716673,45.0,3.045631,2.698266,207.777931,24.0,90.0,0.0,0.0,-0.4504682595518371,0.0,-0.58330650158083,0.0,-1.0602460863216048,0.0,-3.2344561756326407,0.0,-3.1759468965684974,0.0,-3.0739280317504383,0.0,-8.016572357046883,0.0,-38.871667699937994,4.000505448021787,4.000505448021787,6.656318456146915,6.656318456146915,10.20193519035562,10.20193519035562,0.0,-26.35379061371841,False
2.742521,2.282404,186.132491,29.0,74.433041,62.092816,7785.215701,47.0,2.968978,2.640222,204.512709,25.0,90.0,0.0,0.0,-0.6809412166028471,0.0,-0.9192004130057068,0.0,-1.270579192254263,1.4580191050779339,1.4580191050779339,0.0,-3.896119331085463,0.0,-3.4639216459114683,0.0,-7.241826621951157,0.0,-4.153750774953496,3.79347965328469,3.79347965328469,6.376140789871794,6.376140789871794,9.852968886350867,9.852968886350867,0.0,-22.141997593261127,False
2.531513,2.076727,177.741645,32.0,76.630922,64.91769,8193.646081,49.0,2.949819,2.631709,203.573858,25.0,90.0,0.0,0.0,-0.9068123574455486,0.0,-1.286845463508248,0.0,-1.5562959503675635,15.535444947209657,15.535444947209657,0.0,-2.7512388888381487,0.0,-1.6863515822110784,0.0,-4.637446157372239,30.564166150031003,30.564166150031003,3.7417346830765057,3.7417346830765057,6.335048644723283,6.335048644723283,9.752630421315054,9.752630421315054,0.0,-22.141997593261127,False
2.403954,1.983845,170.874031,32.0,74.734669,62.845111,7896.349009,48.0,2.900584,2.587186,199.736372,25.0,90.0,0.0,0.0,-1.0433564546113152,0.0,-1.4528708702419955,0.0,-1.7901451245811673,15.535444947209657,15.535444947209657,0.0,-3.7390007254675215,0.0,-2.990535197145437,0.0,-6.533178513259463,13.205207687538753,13.205207687538753,3.608759913610457,3.608759913610457,6.120136677326701,6.120136677326701,9.342504155447068,9.342504155447068,0.0,-22.141997593261127,False
2.138406,1.769876,158.228803,34.0,74.380195,62.069341,7628.353023,45.0,2.828576,2.523827,193.791294,25.0,90.0,0.0,0.0,-1.3276093251588668,0.0,-1.835337766448077,0.0,-2.2207278750885107,24.920395508630808,24.920395508630808,0.0,-3.9236469141761785,0.0,-3.478693440067725,0.0,-8.242070761979951,0.0,-38.871667699937994,3.4142794180339138,3.4142794180339138,5.814303572138817,5.814303572138817,8.707131768307704,8.707131768307704,0.0,-22.141997593261127,False
2.078468,1.72128,151.979556,33.0,69.608536,57.817209,7221.890619,45.0,2.771077,2.481409,190.193938,25.0,90.0,0.0,0.0,-1.391769283263914,0.0,-1.9222025052094434,0.0,-2.433521030092103,20.227920227920233,20.227920227920233,0.0,-6.409213269303407,0.0,-6.1543747448276855,0.0,-10.833902311247618,0.0,-38.871667699937994,3.258985089415487,3.258985089415487,5.609552413568457,5.609552413568457,8.32266908016297,8.32266908016297,0.0,-22.141997593261127,False
2.009315,1.64183,156.589876,35.0,70.437941,58.907171,7239.480335,45.0,2.792673,2.505248,187.012656,24.0,90.0,0.0,0.0,-1.4657933344974943,0.0,-2.0642183808903742,0.0,-2.2765349902738397,29.612870789341383,29.612870789341383,0.0,-5.977174608792611,0.0,-5.468509172851375,0.0,-10.72174044726509,0.0,-38.871667699937994,3.31731195285387,3.31731195285387,5.724622970151954,5.724622970151954,7.982673753187698,7.982673753187698,0.0,-26.35379061371841,False
2.04529,1.679093,156.649233,33.0,73.115224,61.434342,7552.835375,45.0,2.81887,2.54476,187.045567,24.0,90.0,0.0,0.0,-1.427284300281653,0.0,-1.997611237082967,0.0,-2.2745138246355556,20.227920227920233,20.227920227920233,0.0,-4.5825727422396785,0.0,-3.8782706293086213,0.0,-8.723613509074687,0.0,-38.871667699937994,3.3880652794650614,3.3880652794650614,5.915346902855812,5.915346902855812,7.986191072999676,7.986191072999676,0.0,-26.35379061371841,False
2.073181,1.670239,153.868775,33.0,77.535587,65.386916,8023.8948,46.0,2.844277,2.564092,186.098501,24.0,90.0,0.0,0.0,-1.397428692962292,0.0,-2.0134376507176923,0.0,-2.3691912201961696,20.227920227920233,20.227920227920233,0.0,-2.279997149505729,0.0,-1.3910881153414438,0.0,-5.719875236408053,0.0,-21.512709237445744,3.4566849599326934,3.4566849599326934,6.008662226479798,6.008662226479798,7.884974640650339,7.884974640650339,0.0,-26.35379061371841,False
2.343766,1.817722,154.470041,32.0,77.550603,65.014026,7890.134534,43.0,2.80526,2.519316,182.348648,24.0,90.0,0.0,0.0,-1.1077840224051454,0.0,-1.7498136432532396,0.0,-2.3487175072614126,15.535444947209657,15.535444947209657,0.0,-2.272175286210686,0.0,-1.6257315369783865,0.0,-6.572805480498318,0.0,-73.5895846249225,3.351307147801958,3.351307147801958,5.792529031229042,5.792529031229042,7.484214036326609,7.484214036326609,0.0,-26.35379061371841,False
2.416059,1.86695,159.604576,33.0,78.686047,66.433946,7977.531194,43.0,2.833604,2.543177,184.491758,24.0,90.0,0.0,0.0,-1.0303987934804533,0.0,-1.6618192124411453,0.0,-2.17388141866924,20.227920227920233,20.227920227920233,0.0,-1.680720321693922,0.0,-0.7322377794339893,0.0,-6.015515511095342,0.0,-73.5895846249225,3.427859130451407,3.427859130451407,5.907705781538991,5.907705781538991,7.7132560971039865,7.7132560971039865,0.0,-26.35379061371841,False
2.654916,2.028736,169.631796,33.0,77.914998,67.059923,7996.014391,43.0,2.825239,2.536616,185.532406,24.0,90.0,0.0,0.0,-0.7747170037461064,0.0,-1.3726287723792812,0.0,-1.8324444775921596,20.227920227920233,20.227920227920233,0.0,-2.0823612295112044,0.0,-0.33833774149779566,0.0,-5.897656312693493,0.0,-73.5895846249225,3.4052667886908,3.4052667886908,5.876035916119118,5.876035916119118,7.824473982543304,7.824473982543304,0.0,-26.35379061371841,False
2.796173,2.142849,178.510385,33.0,76.604168,65.852102,7688.742497,43.0,2.837783,2.548769,186.820465,25.0,90.0,0.0,0.0,-0.6235100365125538,0.0,-1.1686532201882414,0.0,-1.5301195790419522,20.227920227920233,20.227920227920233,0.0,-2.765175098920442,0.0,-1.0983668443564243,0.0,-7.8569937107777434,0.0,-73.5895846249225,3.4391458484690496,3.4391458484690496,5.934698296007506,5.934698296007506,7.962133592998599,7.962133592998599,0.0,-22.141997593261127,False
3.116723,2.371746,188.715487,30.0,79.860094,68.728058,7933.8976,43.0,2.92454,2.596315,189.942343,25.0,90.0,0.0,0.0,-0.2803808935552825,0.0,-0.7595027117459745,0.0,-1.1826255766903944,6.150494385788508,6.150494385788508,0.0,-1.069156980194024,0.7113468951305524,0.7113468951305524,0.0,-6.29374770286562,0.0,-73.5895846249225,3.6734607073004875,3.6734607073004875,6.1642022468158055,6.1642022468158055,8.29578019565341,8.29578019565341,0.0,-22.141997593261127,False
3.28604,2.552891,196.239554,28.0,78.920953,67.67036,7924.777926,44.0,2.972191,2.629072,192.734354,25.0,90.0,0.0,0.0,-0.09913741485275153,0.0,-0.4357083026808736,0.0,-0.9264235166040491,0.0,-3.2344561756326407,0.0,-1.5583573342680592,0.045783651872345885,0.045783651872345885,0.0,-6.351899843284091,0.0,-56.23062616243024,3.802157381207802,3.802157381207802,6.322319878512003,6.322319878512003,8.594172696809723,8.594172696809723,0.0,-22.141997593261127,False
3.393506,2.646886,202.739691,28.0,80.41899,69.877148,8125.859898,45.0,8.581426,3.93296,234.50291,24.0,90.0,0.0,0.01589835640616642,0.01589835640616642,0.0,-0.2676934224463974,0.0,-0.7050873043875079,0.0,-3.2344561756326407,0.0,-0.7780269783193798,1.4344191399448298,1.4344191399448298,0.0,-5.069688760808287,0.0,-38.871667699937994,18.95167969269117,18.95167969269117,12.616171041838719,12.616171041838719,13.05813214916414,13.05813214916414,0.0,-26.35379061371841,False
3.73561,2.98422,217.700667,26.0,80.169714,69.148225,8208.801726,46.0,12.808978,6.283688,323.553226,23.0,90.0,0.0,0.3820997362915333,0.3820997362915333,0.33528685957942117,0.33528685957942117,0.0,-0.1956510019061008,0.0,-12.61940673705379,0.0,-0.9078753263972039,0.9757396719251241,0.9757396719251241,0.0,-4.540805291024124,0.0,-21.512709237445744,30.369527821171456,30.369527821171456,23.963105868652587,23.963105868652587,22.5752674756367,22.5752674756367,0.0,-30.565583634175685,False
4.38632,3.395892,227.602384,25.0,80.692131,69.032094,8180.816156,45.0,13.612056,7.283747,360.563643,21.0,90.0,0.0,1.0786449386428865,1.0786449386428865,1.0711453815847112,1.0711453815847112,0.14151243560608295,0.14151243560608295,0.0,-17.311882017764365,0.0,-0.6357473058185095,0.9026634961142446,0.9026634961142446,0.0,-4.719256932643204,0.0,-38.871667699937994,32.53849526127005,32.53849526127005,28.790378226819357,28.790378226819357,26.53070708438757,26.53070708438757,0.0,-38.989169675090245,False
4.625778,3.608526,235.432529,22.0,81.004769,69.370438,8175.007114,43.0,13.859948,7.709066,368.428345,20.0,90.0,0.0,1.3349700620690674,1.3349700620690674,1.4512259820823716,1.4512259820823716,0.40813675989436915,0.40813675989436915,0.0,-31.389307859896086,0.0,-0.47289357001420157,1.115568625912116,1.115568625912116,0.0,-4.756298632388258,0.0,-73.5895846249225,33.20800641294015,33.20800641294015,30.84338775136054,30.84338775136054,27.371236760176465,27.371236760176465,0.0,-43.20096269554753,False
5.244915,4.085304,253.884262,21.0,80.864501,68.273767,8101.503498,42.0,13.885088,7.794003,357.900041,18.0,90.0,0.0,1.9977183016046653,1.9977183016046653,2.3034606601868775,2.3034606601868775,1.0364368543463727,1.0364368543463727,0.0,-36.08178314060666,0.0,-0.5459594411296701,0.4254813727006982,0.4254813727006982,0.0,-5.224998785364905,0.0,-90.94854308741475,33.275904975027615,33.275904975027615,31.253377594245425,31.253377594245425,26.246038126111625,26.246038126111625,0.0,-51.62454873646208,False
5.721188,4.357415,289.73393,22.0,76.492515,64.191783,7487.388253,39.0,13.860146,7.665561,345.78716,17.0,90.0,0.0,2.507539378827216,2.507539378827216,2.789855650085101,2.789855650085101,2.257154159895556,2.257154159895556,0.0,-31.389307859896086,0.0,-2.82333536147253,0.0,-2.143133212907013,0.0,-9.140940951758338,0.0,-143.0254184748915,33.20854117488499,33.20854117488499,30.633389657306047,30.633389657306047,24.951489910578527,24.951489910578527,0.0,-55.836341756919374,False
8.806226,5.851825,348.935382,21.0,74.349051,63.08278,7413.492871,41.0,13.848097,7.531689,334.436205,16.0,90.0,0.0,5.809883615079329,5.809883615079329,5.461094728453137,5.461094728453137,4.273023232101171,4.273023232101171,0.0,-36.08178314060666,0.0,-3.9398698837060793,0.0,-2.84098045613058,0.0,-9.612139223795289,0.0,-108.30750154990699,33.17599901996884,33.17599901996884,29.987191177883833,29.987191177883833,23.738371533551092,23.738371533551092,0.0,-60.048134777376646,False
9.465783,6.455475,367.796957,20.0,84.880411,68.211662,8253.740465,41.0,13.81768,7.295411,317.618414,15.0,90.0,0.0,6.515898989097326,6.515898989097326,6.540111510766468,6.540111510766468,4.915278859473058,4.915278859473058,0.0,-40.77425842131724,1.5459358056218195,1.5459358056218195,0.3864014035388463,0.3864014035388463,0.0,-4.2542507650008305,0.0,-108.30750154990699,33.09384824180598,33.09384824180598,28.846680209788016,28.846680209788016,21.940992253736606,21.940992253736606,0.0,-64.25992779783392,False
9.704609,6.742596,362.343572,19.0,85.823285,67.305242,8263.853678,39.0,13.792016,7.079838,302.954435,14.0,90.0,0.0,6.771547595230263,6.771547595230263,7.053336686869484,7.053336686869484,4.729585607214143,4.729585607214143,0.0,-45.46673370202781,2.0370806865792055,2.0370806865792055,0.0,-0.1839691889687508,0.0,-4.1897632644105895,0.0,-143.0254184748915,33.024534451137214,33.024534451137214,27.80611201924418,27.80611201924418,20.37379879686497,20.37379879686497,0.0,-68.4717208182912,False
9.690806,6.716673,347.579711,17.0,85.213692,65.717409,8465.731205,40.0,13.7517,6.820794,284.779807,12.0,90.0,0.0,6.75677232909319,6.75677232909319,7.006999650427989,7.006999650427989,4.22686126902996,4.22686126902996,0.0,-54.851684263448966,1.719542519849126,1.719542519849126,0.0,-1.1831232775955685,0.0,-2.902479278443866,0.0,-125.66646001239926,32.91564827655017,32.91564827655017,26.55570985222308,26.55570985222308,18.431409348361527,18.431409348361527,0.0,-76.89530685920577,False
9.55535,6.396077,321.752826,16.0,83.162972,63.414572,8039.907947,39.0,13.715788,6.570015,266.099672,11.0,90.0,0.0,6.611774977078152,6.611774977078152,6.433938332872245,6.433938332872245,3.3474298202386183,3.3474298202386183,0.0,-59.544159544159534,0.6513185256813733,0.6513185256813733,0.0,-2.632198214311907,0.0,-5.617766457861195,0.0,-143.0254184748915,32.818656504009,32.818656504009,25.345202737434146,25.345202737434146,16.434994504513288,16.434994504513288,0.0,-81.10709987966305,False
9.523793,6.212768,303.43548,14.0,84.169112,64.220949,8044.234088,38.0,13.6827,6.322561,250.042035,10.0,90.0,0.0,6.57799514128248,6.57799514128248,6.106275801025853,6.106275801025853,2.7237057385000605,2.7237057385000605,0.0,-68.92911010558068,1.1754187877805122,1.1754187877805122,0.0,-2.1247803205380467,0.0,-5.590180564012124,0.0,-160.38437693738373,32.729291841226576,32.729291841226576,24.150745356301837,24.150745356301837,14.718855683036528,14.718855683036528,0.0,-85.31889290012032,False
9.824895,6.359617,306.552699,13.0,94.232434,71.418376,8749.449768,37.0,10.567047,4.49238,146.207521,10.0,90.0,0.0,6.900306391329962,6.900306391329962,6.368766541464735,6.368766541464735,2.8298501853185574,2.8298501853185574,0.0,-73.62158538629126,6.4174225822703646,6.4174225822703646,2.404246733719565,2.404246733719565,0.0,-1.0933310879600864,0.0,-177.743335399876,24.314480438541526,24.314480438541526,15.31648442595471,15.31648442595471,3.6216786522833764,3.6216786522833764,0.0,-85.31889290012032,False
10.043459,6.639798,324.657439,13.0,92.178716,69.581629,8576.51689,38.0,4.817625,1.985812,66.671432,10.0,90.0,0.0,7.134265767406435,7.134265767406435,6.869586554858806,6.869586554858806,3.4463348186063336,3.4463348186063336,0.0,-73.62158538629126,5.347636924133605,5.347636924133605,1.2484619157802568,1.2484619157802568,0.0,-2.196047808363225,0.0,-160.38437693738373,8.786338567656577,8.786338567656577,3.217311856870925,3.217311856870925,0.0,-4.878636184907835,0.0,-85.31889290012032,False
9.863001,6.471119,331.225226,14.0,100.059675,76.171703,8731.466392,36.0,2.319401,0.870074,29.773611,9.0,90.0,0.0,6.941096530532989,6.941096530532989,6.568074963996833,6.568074963996833,3.669974581464415,3.669974581464415,0.0,-68.92911010558068,9.452843632437181,9.452843632437181,5.395308203427169,5.395308203427169,0.0,-1.2080031482058928,0.0,-195.10229386236824,2.03909046215142,2.03909046215142,0.0,-2.1683415959316332,0.0,-8.82204224434238,0.0,-89.53068592057761,False
10.121439,6.854318,342.30526,14.0,108.571884,81.212579,9524.053854,37.0,1.052697,0.378121,10.407985,9.0,90.0,0.0,7.217738581531558,7.217738581531558,7.2530383566344305,7.2530383566344305,4.047260899705167,4.047260899705167,0.0,-68.92911010558068,13.886869680445052,13.886869680445052,8.567311723734909,8.567311723734909,3.8459776612113217,3.8459776612113217,0.0,-177.743335399876,0.0,-1.3820463791549662,0.0,-4.542992609939024,0.0,-10.891718036664729,0.0,-89.53068592057761,False
10.148211,6.975611,349.542528,14.0,110.165265,82.268039,9636.646354,38.0,0.389296,0.147688,3.452375,9.0,90.0,0.0,7.246396367883927,7.246396367883927,7.469848068515704,7.469848068515704,4.293697164958651,4.293697164958651,0.0,-68.92911010558068,14.716864909462673,14.716864909462673,9.231466691154063,9.231466691154063,4.563930393958829,4.563930393958829,0.0,-160.38437693738373,0.0,-3.173771676982634,0.0,-5.6552898357121455,0.0,-11.635089701378035,0.0,-89.53068592057761,False
9.606832,6.930136,324.467566,14.0,110.868404,83.943969,9758.416383,38.0,0.121212,0.048084,1.409706,9.0,90.0,0.0,6.666883305069812,6.666883305069812,7.38856207799852,7.38856207799852,3.439869451703728,3.439869451703728,0.0,-68.92911010558068,15.08313136760182,15.08313136760182,10.28605638147561,10.28605638147561,5.3404041829527,5.3404041829527,0.0,-160.38437693738373,0.0,-3.897817743754967,0.0,-6.136077105226087,0.0,-11.853397262467322,0.0,-89.53068592057761,False
7.823802,5.957592,294.682377,14.0,110.987642,84.257249,9595.285037,37.0,0.04282,0.017717,0.638435,10.0,90.0,0.0,4.7582588915084205,4.7582588915084205,5.650151910619846,5.650151910619846,2.4256537646476253,2.4256537646476253,0.0,-68.92911010558068,15.145242671249601,15.145242671249601,10.483189828686376,10.483189828686376,4.300187510816646,4.300187510816646,0.0,-177.743335399876,0.0,-4.109540260825797,0.0,-6.282658236639784,0.0,-11.935825835549352,0.0,-85.31889290012032,False
8.160621,6.14797,302.744651,14.0,108.867313,83.942258,8928.575511,34.0,0.020831,0.007763,0.258113,9.0,90.0,0.0,5.118803002572921,5.118803002572921,5.990450191052625,5.990450191052625,2.700182315201545,2.700182315201545,0.0,-68.92911010558068,14.04075921503436,14.04075921503436,10.28497972376309,10.28497972376309,0.04887480223931457,0.04887480223931457,0.0,-229.82021078735272,0.0,-4.168928545700154,0.0,-6.3307060708707565,0.0,-11.97647224877078,0.0,-89.53068592057761,False
8.349519,6.3386,334.905463,15.0,110.828259,86.769337,9451.313319,34.0,0.009216,0.003341,0.087396,9.0,90.0,0.0,5.321006742539674,5.321006742539674,6.331198918315758,6.331198918315758,3.7952903582917594,3.7952903582917594,0.0,-64.23663482487011,15.062219759851441,15.062219759851441,12.0639372978411,12.0639372978411,3.3821433393447258,3.3821433393447258,0.0,-229.82021078735272,0.0,-4.200298545646293,0.0,-6.352051009887168,0.0,-11.994717403471068,0.0,-89.53068592057761,False
8.325556,6.271301,344.941068,17.0,114.463737,90.14863,9946.092452,33.0,0.003322,0.00127,0.030421,9.0,90.0,0.0,5.295355818650468,5.295355818650468,6.210902802300013,6.210902802300013,4.137012817064764,4.137012817064764,0.0,-54.851684263448966,16.955947245743708,16.955947245743708,14.190379069499695,14.190379069499695,6.537131732388583,6.537131732388583,0.0,-247.179169249845,0.0,-4.216217166367993,0.0,-6.362047701136148,0.0,-12.000806531613248,0.0,-89.53068592057761,False
8.782107,6.938065,376.28877,18.0,114.860228,90.577559,10204.888029,35.0,0.001021,0.000404,0.012586,10.0,90.0,0.0,5.784065702744321,5.784065702744321,7.4027350657678594,7.4027350657678594,5.2044336456369775,5.2044336456369775,0.0,-50.15920898273839,17.162480170605015,17.162480170605015,14.460285390933125,14.460285390933125,8.187357029190023,8.187357029190023,0.0,-212.46125232486048,0.0,-4.2224317483633484,0.0,-6.366227872368217,0.0,-12.002712623766223,0.0,-85.31889290012032,False
9.198857,7.607382,429.748905,19.0,113.313327,89.593345,10096.849513,35.0,0.000386,0.000156,0.005786,10.0,90.0,0.0,6.230171053945204,6.230171053945204,8.59913078462417,8.59913078462417,7.024805090959584,7.024805090959584,0.0,-45.46673370202781,16.35669646302812,16.35669646302812,13.840962425492965,13.840962425492965,7.4984430446512205,7.4984430446512205,0.0,-212.46125232486048,0.0,-4.224146767731907,0.0,-6.36742496528456,0.0,-12.00343936481698,0.0,-85.31889290012032,False
8.950505,7.616477,401.41456,18.0,110.645946,86.866121,9826.540726,36.0,0.000188,6.9e-05,0.002265,9.0,90.0,0.0,5.964325448230888,5.964325448230888,8.615387982727608,8.615387982727608,6.059992103489212,6.059992103489212,0.0,-50.15920898273839,14.967252567329442,14.967252567329442,12.124839249944168,12.124839249944168,5.774803083620842,5.774803083620842,0.0,-195.10229386236824,0.0,-4.224681529676748,0.0,-6.367844913202793,0.0,-12.003815667058115,0.0,-89.53068592057761,False
9.159171,7.757343,409.961898,19.0,111.78794,88.549853,10029.197436,36.0,8e-05,2.9e-05,0.000778,9.0,90.0,0.0,6.187689621509072,6.187689621509072,8.867184185920433,8.867184185920433,6.351037571831573,6.351037571831573,0.0,-45.46673370202781,15.562119439450269,15.562119439450269,13.18433839875377,13.18433839875377,7.067055576052568,7.067055576052568,0.0,-195.10229386236824,0.0,-4.224973218010298,0.0,-6.368037992705429,0.0,-12.003974588226125,0.0,-89.53068592057761,False
9.188969,7.751019,410.40243,19.0,105.837084,83.46109,9733.575536,37.0,2.8e-05,1.1e-05,0.000276,9.0,90.0,0.0,6.219586555534469,6.219586555534469,8.855880115463464,8.855880115463464,6.366038130164448,6.366038130164448,0.0,-45.46673370202781,12.462307097913081,12.462307097913081,9.982201676880086,9.982201676880086,5.182005053459951,5.182005053459951,0.0,-177.743335399876,0.0,-4.2251136605412665,0.0,-6.368124878481616,0.0,-12.00402823881546,0.0,-89.53068592057761,False
9.158053,7.685847,438.022364,20.0,93.139661,75.474906,8603.543349,37.0,9e-06,4e-06,0.000115,12.0,90.0,0.0,6.186492870980835,6.186492870980835,8.739385985194394,8.739385985194394,7.306524703482959,7.306524703482959,0.0,-40.77425842131724,5.84819502376473,5.84819502376473,4.956844226741405,4.956844226741405,0.0,-2.0237119947385387,0.0,-177.743335399876,0.0,-4.2251649760814285,0.0,-6.368158667394577,0.0,-12.004045445478575,0.0,-76.89530685920577,False
9.312038,7.779701,449.497076,20.0,94.027567,76.56746,8447.676085,36.0,4e-06,1e-06,5.3e-05,12.0,90.0,0.0,6.351324382689695,6.351324382689695,8.907148829702363,8.907148829702363,7.697250205169414,7.697250205169414,0.0,-40.77425842131724,6.31070696774807,6.31070696774807,5.644340831324868,5.644340831324868,0.0,-3.0176088185472016,0.0,-195.10229386236824,0.0,-4.225178480170944,0.0,-6.368173148357275,0.0,-12.004052071646978,0.0,-76.89530685920577,False
9.10462,7.473686,442.926866,21.0,97.288045,79.901369,8913.505775,37.0,2e-06,1e-06,1.9e-05,11.0,90.0,0.0,6.129296116977916,6.129296116977916,8.360150866247357,8.360150866247357,7.473527936720728,7.473527936720728,0.0,-36.08178314060666,8.009096232033825,8.009096232033825,7.742224430204438,7.742224430204438,0.0,-0.04721826029134288,0.0,-177.743335399876,0.0,-4.225183881806751,0.0,-6.368173148357275,0.0,-12.004055705352231,0.0,-81.10709987966305,False
9.18742,7.551488,470.076756,22.0,111.666194,88.215806,9462.771159,36.0,1e-06,0.0,7e-06,11.0,90.0,0.0,6.2179284459027695,6.2179284459027695,8.49922096265677,8.49922096265677,8.398009038379932,8.398009038379932,0.0,-31.389307859896086,15.498701713776386,15.498701713776386,12.974137183737128,12.974137183737128,3.4552049334951622,3.4552049334951622,0.0,-195.10229386236824,0.0,-4.225186582624654,0.0,-6.368177975344841,0.0,-12.004056987836439,0.0,-81.10709987966305,False
8.840621,7.286006,472.80534,23.0,112.086942,88.939362,9535.929153,38.0,0.0,0.0,3e-06,11.0,90.0,0.0,5.846701356062063,5.846701356062063,8.024675226879237,8.024675226879237,8.490920071989633,8.490920071989633,0.0,-26.696832579185514,15.717870156615039,15.717870156615039,13.429439432620018,13.429439432620018,3.9217012073555426,3.9217012073555426,0.0,-160.38437693738373,0.0,-4.225189283442557,0.0,-6.368177975344841,0.0,-12.004057415331173,0.0,-81.10709987966305,False
8.806888,7.250957,481.233706,23.0,111.612767,88.786286,9664.195092,41.0,0.0,0.0,1e-06,14.0,90.0,0.0,5.810592245535226,5.810592245535226,7.96202558022422,7.96202558022422,8.77791442389555,8.77791442389555,0.0,-26.696832579185514,15.470871486667662,15.470871486667662,13.333115378849481,13.333115378849481,4.739596550504289,4.739596550504289,0.0,-108.30750154990699,0.0,-4.225189283442557,0.0,-6.368177975344841,0.0,-12.004057629078543,0.0,-68.4717208182912,False
9.181191,7.719221,533.633504,25.0,115.363859,92.214779,9786.006502,41.0,0.0,0.0,1e-06,16.0,90.0,0.0,6.211260682897059,6.211260682897059,8.799041590417495,8.799041590417495,10.562180326326825,10.562180326326825,0.0,-17.311882017764365,17.424822527634106,17.424822527634106,15.490516565736517,15.490516565736517,5.51633420789112,5.51633420789112,0.0,-108.30750154990699,0.0,-4.225189283442557,0.0,-6.368177975344841,0.0,-12.004057629078543,0.0,-60.048134777376646,False
9.042387,7.640115,517.557767,24.0,116.751654,94.784001,10168.493281,41.0,0.0,0.0,0.0,17.0,90.0,0.0,6.062679501929842,6.062679501929842,8.657640610409745,8.657640610409745,10.014785288934643,10.014785288934643,0.0,-22.00435729847494,18.147727613645866,18.147727613645866,17.107215970453495,17.107215970453495,7.955283766901175,7.955283766901175,0.0,-108.30750154990699,0.0,-4.225189283442557,0.0,-6.368177975344841,0.0,-12.004057735952227,0.0,-55.836341756919374,False
9.105661,7.697393,528.06395,25.0,112.958495,90.456897,9744.931592,41.0,0.0,0.0,0.0,21.0,90.0,0.0,6.130410443722006,6.130410443722006,8.760024314969247,8.760024314969247,10.372531402604833,10.372531402604833,0.0,-17.311882017764365,16.171863791430564,16.171863791430564,14.384358054341757,14.384358054341757,5.2544176159169,5.2544176159169,0.0,-108.30750154990699,0.0,-4.225189283442557,0.0,-6.368177975344841,0.0,-12.004057735952227,0.0,-38.989169675090245,False
9.193504,7.796259,536.924106,25.0,114.481512,91.550927,9859.73432,41.0,0.0,0.0,0.0,24.0,90.0,0.0,6.2244409952889885,6.2244409952889885,8.93674604643647,8.93674604643647,10.67422863893811,10.67422863893811,0.0,-17.311882017764365,16.96520627744786,16.96520627744786,15.072783441382079,15.072783441382079,5.986463998175642,5.986463998175642,0.0,-108.30750154990699,0.0,-4.225189283442557,0.0,-6.368177975344841,0.0,-12.004057735952227,0.0,-26.35379061371841,False
8.940802,7.572042,520.717698,25.0,118.30827,94.417277,9990.346028,41.0,0.0,0.0,0.0,30.0,90.0,0.0,5.95393898098985,5.95393898098985,8.53596097912934,8.53596097912934,10.12238412237548,10.12238412237548,0.0,-17.311882017764365,18.95857188341718,18.95857188341718,16.87645254382262,16.87645254382262,6.819317276035351,6.819317276035351,0.0,-108.30750154990699,0.0,-4.225189283442557,0.0,-6.368177975344841,0.0,-12.004057735952227,0.0,-1.0830324909747253,False
8.878504,7.531061,530.049705,25.0,127.142195,99.774251,10578.72985,42.0,0.0,0.0,0.0,36.0,90.0,0.0,5.8872527874226925,5.8872527874226925,8.462707957086796,8.462707957086796,10.440148360538192,10.440148360538192,0.0,-17.311882017764365,23.560180414898017,23.560180414898017,20.24736275589628,20.24736275589628,10.57118150242095,10.57118150242095,0.0,-90.94854308741475,0.0,-4.225189283442557,0.0,-6.368177975344841,0.0,-12.004057735952227,24.187725631768956,24.187725631768956,False
8.430711,7.047869,494.850357,25.0,131.497186,104.881113,11259.351921,41.0,0.0,0.0,0.0,37.0,90.0,0.0,5.407917805946277,5.407917805946277,7.599008334657338,7.599008334657338,9.241575106034187,9.241575106034187,0.0,-17.311882017764365,25.82870360703766,25.82870360703766,23.46088838948174,23.46088838948174,14.911208376704007,14.911208376704007,0.0,-108.30750154990699,0.0,-4.225189283442557,0.0,-6.368177975344841,0.0,-12.004057735952227,28.399518652226234,28.399518652226234,False
8.115542,6.739975,477.807897,25.0,130.199691,103.333861,11360.099487,45.0,0.0,0.0,0.0,42.0,90.0,0.0,5.070548693930365,5.070548693930365,7.048651682336322,7.048651682336322,8.661262176744863,8.661262176744863,0.0,-17.311882017764365,25.15283596478875,25.15283596478875,22.48727015511074,22.48727015511074,15.55363118752497,15.55363118752497,0.0,-38.871667699937994,0.0,-4.225189283442557,0.0,-6.368177975344841,0.0,-12.004057735952227,49.45848375451264,49.45848375451264,False
7.839924,6.437808,452.006282,25.0,133.157916,106.598666,11981.280251,48.0,0.0,0.0,0.0,49.0,90.0,0.0,4.775516505118644,4.775516505118644,6.508531970481321,6.508531970481321,7.78269119690713,7.78269119690713,0.0,-17.311882017764365,26.693781059753885,26.693781059753885,24.541669619235282,24.541669619235282,19.514627053537208,19.514627053537208,13.205207687538753,13.205207687538753,0.0,-4.225189283442557,0.0,-6.368177975344841,0.0,-12.004057735952227,78.9410348977136,78.9410348977136,False
7.141497,5.88784,415.152503,26.0,120.742385,98.151654,11601.846204,50.0,0.0,0.0,0.0,54.0,90.0,0.0,4.027893176688702,4.027893176688702,5.525471087957841,5.525471087957841,6.527782900401147,6.527782900401147,0.0,-12.61940673705379,20.226507070845813,20.226507070845813,19.226333197533645,19.226333197533645,17.09514342060344,17.09514342060344,47.92312461252325,47.92312461252325,0.0,-4.225189283442557,0.0,-6.368177975344841,0.0,-12.004057735952227,100.0,100.0,False
6.714803,5.440055,372.654448,24.0,125.018064,100.914114,12018.731691,49.0,0.0,0.0,0.0,59.0,90.0,0.0,3.5711433825067953,3.5711433825067953,4.725061032680487,4.725061032680487,5.080681320808248,5.080681320808248,0.0,-22.00435729847494,22.453716489566645,22.453716489566645,20.964628851842402,20.964628851842402,19.75343837483596,19.75343837483596,30.564166150031003,30.564166150031003,0.0,-4.225189283442557,0.0,-6.368177975344841,0.0,-12.004057735952227,100.0,121.0589651022864,True
6.586069,5.386348,352.266172,22.0,124.211646,99.006315,11941.694835,46.0,0.0,0.0,0.0,63.0,90.0,0.0,3.4333415198037494,3.4333415198037494,4.629060445705084,4.629060445705084,4.386439986592458,4.386439986592458,0.0,-31.389307859896086,22.033651801589365,22.033651801589365,19.764134107667072,19.764134107667072,19.26220830811325,19.26220830811325,0.0,-21.512709237445744,0.0,-4.225189283442557,0.0,-6.368177975344841,0.0,-12.004057735952227,100.0,137.90613718411552,True
6.049191,4.944584,312.528176,23.0,128.953084,99.737686,12318.667004,48.0,0.943434,0.243759,14.88935,60.0,90.0,0.0,2.8586465018264797,2.8586465018264797,3.8394128521958213,3.8394128521958213,3.0333211960629543,3.0333211960629543,0.0,-26.696832579185514,24.5034759796628,24.5034759796628,20.224353995371306,20.224353995371306,21.66599363043316,21.66599363043316,13.205207687538753,13.205207687538753,0.0,-1.6771458457167359,0.0,-5.19155631326853,0.0,-10.412778050058533,100.0,125.27075812274369,True
5.798605,4.665482,298.206836,23.0,132.413382,102.171792,12558.331882,44.0,1.243925,0.45185,24.002469,59.0,90.0,0.0,2.5904095359332002,2.5904095359332002,3.3405215377301287,3.3405215377301287,2.5456651436651,2.5456651436651,0.0,-26.696832579185514,26.305951866459004,26.305951866459004,21.756030791388937,21.756030791388937,23.194230894049266,23.194230894049266,0.0,-56.23062616243024,0.0,-0.8655743731540874,0.0,-4.187103643692755,0.0,-9.438825450392873,100.0,121.0589651022864,True
5.133573,4.209007,262.182855,22.0,134.092518,104.251416,12991.02916,47.0,1.315501,0.560127,27.317615,56.0,90.0,0.0,1.87853350973086,1.87853350973086,2.524578216755263,2.524578216755263,1.3190123048863702,1.3190123048863702,0.0,-31.389307859896086,27.1806170399936,27.1806170399936,23.064647517711204,23.064647517711204,25.953350668390417,25.953350668390417,0.0,-4.153750774953496,0.0,-0.6722606309117432,0.0,-3.664451911019758,0.0,-9.084523584591363,100.0,108.42358604091456,True
4.576472,3.69672,256.507337,23.0,135.716345,106.355545,13357.075019,47.0,1.367388,0.653925,34.276837,52.0,90.0,0.0,1.2821910088085733,1.2821910088085733,1.6088716477816047,1.6088716477816047,1.1257552002304525,1.1257552002304525,0.0,-26.696832579185514,28.02647164899796,28.02647164899796,24.388684172289015,24.388684172289015,28.287463729029067,28.287463729029067,0.0,-4.153750774953496,0.0,-0.5321232923663021,0.0,-3.2116901313134347,0.0,-8.340765892131685,91.57641395908543,91.57641395908543,False
3.912574,3.230466,233.004446,24.0,132.410673,102.440656,12947.438213,47.0,1.377045,0.693981,38.245656,48.0,90.0,0.0,0.5715288601545523,0.5715288601545523,0.7754484873066276,0.7754484873066276,0.3254580880190881,0.3254580880190881,0.0,-22.00435729847494,26.304540743146116,26.304540743146116,21.925215186022736,21.925215186022736,25.67539041773694,25.67539041773694,0.0,-4.153750774953496,0.0,-0.5060414938747083,0.0,-3.0183403173737293,0.0,-7.916603584731502,74.72924187725631,74.72924187725631,False
3.830098,3.155341,226.926661,24.0,125.436777,97.495164,12874.490773,44.0,1.4187,0.782986,44.824308,45.0,90.0,0.0,0.48324335338636004,0.48324335338636004,0.6411634947260116,0.6411634947260116,0.11850338682332666,0.11850338682332666,0.0,-22.00435729847494,22.67182489698939,22.67182489698939,18.813232658848147,18.813232658848147,25.21023675390556,25.21023675390556,0.0,-56.23062616243024,0.0,-0.3935389241152242,0.0,-2.588714289070766,0.0,-7.2135188101668675,62.093862815884485,62.093862815884485,False
3.86922,3.172787,226.355518,22.0,124.027111,96.548648,12737.639172,44.0,1.441768,0.855498,50.24323,42.0,90.0,0.0,0.5251210583645984,0.5251210583645984,0.6723480002908894,0.6723480002908894,0.09905539238044131,0.09905539238044131,0.0,-31.389307859896086,21.93752716499161,21.93752716499161,18.217631401442173,18.217631401442173,24.337594429427277,24.337594429427277,0.0,-56.23062616243024,0.0,-0.3312364567232721,0.0,-2.2386997666921973,0.0,-6.634378653071869,49.45848375451264,49.45848375451264,False
4.297327,3.302858,224.25412,22.0,124.365962,96.761573,12690.517271,43.0,1.48093,0.931656,55.612077,37.0,90.0,0.0,0.983383382507505,0.983383382507505,0.904848276762814,0.904848276762814,0.0275006738138306,0.0275006738138306,0.0,-31.389307859896086,22.114035302937175,22.114035302937175,18.351615821920184,18.351615821920184,24.037118841841902,24.037118841841902,0.0,-73.5895846249225,0.0,-0.2254670259965663,0.0,-1.871086047648356,0.0,-6.060590195699901,28.399518652226234,28.399518652226234,False
5.369156,4.003828,232.497732,19.0,121.789637,92.663108,12069.640532,42.0,1.561425,1.05081,61.207299,32.0,90.0,0.0,2.130710682980908,2.130710682980908,2.157823334988898,2.157823334988898,0.30820396592334,0.30820396592334,0.0,-45.46673370202781,20.772022652856116,20.772022652856116,15.77263046146735,15.77263046146735,20.0780616092162,20.0780616092162,0.0,-90.94854308741475,0.0,-0.008064688875220282,0.0,-1.2959311712210622,0.0,-5.462608208127208,7.340553549939835,7.340553549939835,False
5.871543,4.245427,252.96054,19.0,122.32246,92.78431,12283.897812,43.0,1.663053,1.199498,72.816078,27.0,90.0,0.0,2.668485197854951,2.668485197854951,2.5896785086658936,2.5896785086658936,1.0049831898126733,1.0049831898126733,0.0,-45.46673370202781,21.04957117885891,21.04957117885891,15.848897596518551,15.848897596518551,21.444285822081593,21.444285822081593,0.0,-73.5895846249225,0.2664140329953073,0.2664140329953073,0.0,-0.5782160440224666,0.0,-4.2219352304129805,0.0,-13.718411552346566,False
6.292538,4.651239,297.868895,21.0,116.402307,88.628387,11858.673812,44.0,1.728171,1.308721,79.921187,23.0,90.0,0.0,3.1191345615713657,3.1191345615713657,3.315062354378041,3.315062354378041,2.5341579122186437,2.5341579122186437,0.0,-36.08178314060666,17.965752089103006,17.965752089103006,13.23375642142758,13.23375642142758,18.732819846729566,18.732819846729566,0.0,-56.23062616243024,0.44228589321852385,0.44228589321852385,0.0,-0.05099798111212904,0.0,-3.462586056825117,0.0,-30.565583634175685,False
6.420715,4.751626,303.678311,21.0,129.754058,97.247174,12993.225944,44.0,1.864333,1.468159,83.496244,19.0,90.0,0.0,3.2563401898878035,3.2563401898878035,3.4945028542141836,3.4945028542141836,2.7319743786454547,2.7319743786454547,0.0,-36.08178314060666,24.920704877564276,24.920704877564276,18.65718336245579,18.65718336245579,25.967358591440853,25.967358591440853,0.0,-56.23062616243024,0.8100346605595606,0.8100346605595606,0.7186072624198956,0.7186072624198956,0.0,-3.080506544958443,0.0,-47.41275571600481,False
7.022364,5.212841,325.702266,18.0,119.483789,91.4996,11940.736915,43.0,1.884394,1.478785,88.823828,20.0,90.0,0.0,3.900368596473669,3.900368596473669,4.31891886556951,4.31891886556951,3.4819122303749737,3.4819122303749737,0.0,-50.15920898273839,19.570901992549626,19.570901992549626,15.040485597775763,15.040485597775763,19.25610007460077,19.25610007460077,0.0,-73.5895846249225,0.8642157685164684,0.8642157685164684,0.7698988322951532,0.7698988322951532,0.0,-2.5111280164066745,0.0,-43.20096269554753,False
7.391043,5.625219,335.276114,18.0,117.403792,89.642951,11513.772718,45.0,1.950095,1.49723,90.918237,20.0,90.0,0.0,4.2950168862766445,4.2950168862766445,5.05603935369476,5.05603935369476,3.807911398185884,3.807911398185884,0.0,-50.15920898273839,18.487427552744602,18.487427552744602,13.87217731882269,13.87217731882269,16.533537630197344,16.533537630197344,0.0,-38.871667699937994,1.0416622055772742,1.0416622055772742,0.858932617948186,0.858932617948186,0.0,-2.2872908109106036,0.0,-43.20096269554753,False
7.500276,5.759593,340.79882,18.0,120.007792,92.640147,11773.345165,43.0,2.095014,1.60501,94.173605,19.0,90.0,0.0,4.41194412281588,4.41194412281588,5.296231188543714,5.296231188543714,3.995965100319479,3.995965100319479,0.0,-50.15920898273839,19.843856163580227,19.843856163580227,15.758182105104336,15.758182105104336,18.188716684482547,18.188716684482547,0.0,-73.5895846249225,1.4330620352969878,1.4330620352969878,1.379185337800929,1.379185337800929,0.0,-1.939377640187344,0.0,-47.41275571600481,False
7.645472,6.02483,362.672773,19.0,117.823655,89.529643,11390.364979,43.0,2.182717,1.689746,101.410231,20.0,90.0,0.0,4.567367548305893,4.567367548305893,5.770338989902847,5.770338989902847,4.740795232857095,4.740795232857095,0.0,-45.46673370202781,18.706134997380275,18.706134997380275,13.800877533848999,13.800877533848999,15.746620886566632,15.746620886566632,0.0,-73.5895846249225,1.6699318678648913,1.6699318678648913,1.7882049561850633,1.7882049561850633,0.0,-1.1659727603094348,0.0,-43.20096269554753,False
8.585073,6.860562,398.935042,17.0,117.114008,89.311,11042.029726,44.0,2.23786,1.788111,106.882449,20.0,90.0,0.0,5.573152873065822,5.573152873065822,7.264199428097637,7.264199428097637,5.975562018055208,5.975562018055208,0.0,-54.851684263448966,18.33647850951788,18.33647850951788,13.663295025235298,13.663295025235298,13.525440552142559,13.525440552142559,0.0,-56.23062616243024,1.8188630695032841,1.8188630695032841,2.2630115881048543,2.2630115881048543,0.0,-0.5811366633554496,0.0,-43.20096269554753,False
9.513215,7.661384,439.530733,17.0,118.897748,91.293345,11638.724778,45.0,2.255227,1.801567,108.442533,20.0,90.0,0.0,6.566672040130704,6.566672040130704,8.695658680389073,8.695658680389073,7.357886187261663,7.357886187261663,0.0,-54.851684263448966,19.265632107940288,19.265632107940288,14.910698317532988,14.910698317532988,17.330301827985203,17.330301827985203,0.0,-38.871667699937994,1.8657681740288625,1.8657681740288625,2.3279635327916095,2.3279635327916095,0.0,-0.41440473902780706,0.0,-43.20096269554753,False
9.522569,7.72576,456.293139,19.0,119.869137,91.621193,11556.311067,43.0,2.287081,1.845949,113.824007,19.0,90.0,0.0,6.5766849242462015,6.5766849242462015,8.810729970670202,8.810729970670202,7.928662995762134,7.928662995762134,0.0,-45.46673370202781,19.771630507268625,19.771630507268625,15.116998772082132,15.116998772082132,16.804785927473958,16.804785927473958,0.0,-73.5895846249225,1.9518000275186864,1.9518000275186864,2.542194894941401,2.542194894941401,0.16073321235120408,0.16073321235120408,0.0,-47.41275571600481,False
9.777793,8.042233,455.054615,19.0,117.67769,88.555354,11125.186773,42.0,2.348971,1.930952,122.029094,21.0,90.0,0.0,6.8498865850857795,6.8498865850857795,9.37642147758488,9.37642147758488,7.886490006039105,7.886490006039105,0.0,-45.46673370202781,18.630101548002152,18.630101548002152,13.187799938249128,13.187799938249128,14.055696378604015,14.055696378604015,0.0,-90.94854308741475,2.118953647550242,2.118953647550242,2.9525033190056305,2.9525033190056305,1.0376410870462343,1.0376410870462343,0.0,-38.989169675090245,False
9.537959,7.800518,460.735631,19.0,121.214778,90.85677,11253.028856,42.0,2.689677,2.149757,135.310039,21.0,90.0,0.0,6.593158976687668,6.593158976687668,8.944358955366932,8.944358955366932,8.07993432313297,8.07993432313297,0.0,-45.46673370202781,20.472577493564117,20.472577493564117,14.635980701611,14.635980701611,14.87088897891029,14.87088897891029,0.0,-90.94854308741475,3.0391385120917085,3.0391385120917085,4.008672333362464,4.008672333362464,2.457024605330875,2.457024605330875,0.0,-38.989169675090245,False
9.984045,8.223277,452.930649,18.0,127.585853,96.273807,12260.030463,44.0,2.695114,2.152576,137.326876,22.0,90.0,0.0,7.070666719209076,7.070666719209076,9.700035350420357,9.700035350420357,7.814166824340517,7.814166824340517,0.0,-50.15920898273839,23.79128272082202,23.79128272082202,18.04468594126325,18.04468594126325,21.29209426013929,21.29209426013929,0.0,-56.23062616243024,3.0538228590316265,3.0538228590316265,4.0222796113107355,4.0222796113107355,2.6725714054167615,2.6725714054167615,0.0,-34.77737665463297,False
10.091495,8.399459,462.66446,18.0,129.973822,98.336546,11992.582725,41.0,2.833222,2.314608,148.248764,22.0,90.0,0.0,7.185685363447912,7.185685363447912,10.014958459409884,10.014958459409884,8.145612893426708,8.145612893426708,0.0,-50.15920898273839,25.035180368052647,25.035180368052647,19.34267767315192,19.34267767315192,19.586697947203373,19.586697947203373,0.0,-108.30750154990699,3.4268274180123703,3.4268274180123703,4.804406060588708,4.804406060588708,3.8398338114993713,3.8398338114993713,0.0,-34.77737665463297,False
10.466928,8.691729,475.842464,17.0,124.647782,96.387939,12065.203295,43.0,2.814998,2.3061,146.703538,22.0,90.0,0.0,7.587563396603042,7.587563396603042,10.537387408248975,10.537387408248975,8.594337203381164,8.594337203381164,0.0,-54.851684263448966,22.260835883238908,22.260835883238908,18.116504233516373,18.116504233516373,20.049767305155108,20.049767305155108,0.0,-73.5895846249225,3.377607712543715,3.377607712543715,4.763338050378025,4.763338050378025,3.674689816367633,3.674689816367633,0.0,-34.77737665463297,False
10.278143,8.483843,471.865741,16.0,124.090023,96.397122,12182.995043,42.0,2.87905,2.307123,154.915923,23.0,90.0,0.0,7.38548061621562,7.38548061621562,10.165793798031151,10.165793798031151,8.458925779613573,8.458925779613573,0.0,-59.544159544159534,21.97029814685217,21.97029814685217,18.122282695102605,18.122282695102605,20.800873350155495,20.800873350155495,0.0,-90.94854308741475,3.5506005008820756,3.5506005008820756,4.768276058657942,4.768276058657942,4.552377655208016,4.552377655208016,0.0,-30.565583634175685,False
10.027564,8.086032,473.224375,17.0,126.902499,96.67447,12133.580463,40.0,3.04357,2.438774,168.999488,24.0,90.0,0.0,7.117251143393625,7.117251143393625,9.454711639182731,9.454711639182731,8.505188635819312,8.505188635819312,0.0,-54.851684263448966,23.435322307254832,23.435322307254832,18.296805701094087,18.296805701094087,20.485778359382838,20.485778359382838,0.0,-125.66646001239926,3.994939062323207,3.994939062323207,5.403753798696293,5.403753798696293,6.05754012969236,6.05754012969236,0.0,-26.35379061371841,False
9.988314,7.988012,474.821326,19.0,136.737848,104.309436,12699.352133,40.0,3.039312,2.461509,176.9927,25.0,90.0,0.0,7.075236422254731,7.075236422254731,9.279502122074552,9.279502122074552,8.559566425923647,8.559566425923647,0.0,-45.46673370202781,28.55857452735988,28.55857452735988,23.10115697445012,23.10115697445012,24.09345486170421,24.09345486170421,0.0,-125.66646001239926,3.983438979691209,3.983438979691209,5.513495361007038,5.513495361007038,6.911804142603717,6.911804142603717,0.0,-22.141997593261127,False
9.871936,7.73498,464.654346,17.0,139.141265,108.397007,13241.211585,39.0,3.211608,2.62566,185.773972,24.0,90.0,0.0,6.9506609008100835,6.9506609008100835,8.827210604701394,8.827210604701394,8.213370516071079,8.213370516071079,0.0,-54.851684263448966,29.81051906751684,29.81051906751684,25.673287215604194,25.673287215604194,27.548653692252103,27.548653692252103,0.0,-143.0254184748915,4.448779101147939,4.448779101147939,6.305850196937151,6.305850196937151,7.850291030876681,7.850291030876681,0.0,-26.35379061371841,False
9.209983,7.329399,456.311636,18.0,147.571736,114.417264,14635.361057,42.0,3.407466,2.818046,203.894964,24.0,90.0,0.0,6.242080755534793,6.242080755534793,8.102239668583739,8.102239668583739,7.929292837243533,7.929292837243533,0.0,-50.15920898273839,34.20196763403757,34.20196763403757,29.46157250513666,29.46157250513666,36.43853022293479,36.43853022293479,0.0,-90.94854308741475,4.977755894040821,4.977755894040821,7.234495026790462,7.234495026790462,9.7869482024686,9.7869482024686,0.0,-26.35379061371841,False
8.758642,6.912828,428.707426,17.0,150.776154,116.194068,14703.091859,41.0,3.667282,3.091416,218.929273,24.0,90.0,0.0,5.758947857355171,5.758947857355171,7.357624245697883,7.357624245697883,6.989341681963269,6.989341681963269,0.0,-54.851684263448966,35.87115513644797,35.87115513644797,30.57963780626624,30.57963780626624,36.870419686150186,36.870419686150186,0.0,-108.30750154990699,5.679471598389163,5.679471598389163,8.55404861768065,8.55404861768065,11.393720190711791,11.393720190711791,0.0,-26.35379061371841,False
8.706799,6.870409,437.771168,17.0,153.459899,119.611224,15122.47659,42.0,3.773197,3.228871,235.068252,25.0,90.0,0.0,5.70345310097291,5.70345310097291,7.281800816742447,7.281800816742447,7.297971226661786,7.297971226661786,0.0,-54.851684263448966,37.26912307123563,37.26912307123563,32.7299051132662,32.7299051132662,39.544651217504644,39.544651217504644,0.0,-90.94854308741475,5.9655287266108825,5.9655287266108825,9.217542193551486,9.217542193551486,13.118552331387171,13.118552331387171,0.0,-22.141997593261127,False
8.234668,6.417559,432.41229,20.0,157.883299,125.891862,15612.383365,42.0,4.016599,3.466048,255.871891,25.0,90.0,0.0,5.198065781074111,5.198065781074111,6.472337137672469,6.472337137672469,7.115496032946552,7.115496032946552,0.0,-40.77425842131724,39.57328064311362,39.57328064311362,36.68203681533117,36.68203681533117,42.66857073170644,42.66857073170644,0.0,-90.94854308741475,6.622913205895433,6.622913205895433,10.362392623469042,10.362392623469042,15.341913870565566,15.341913870565566,0.0,-22.141997593261127,False
8.221904,6.444957,434.542801,21.0,157.033913,125.795925,15455.525922,42.0,3.999144,3.490734,255.33814,25.0,90.0,0.0,5.184402700803619,5.184402700803619,6.52131071806147,6.52131071806147,7.188042078487697,7.188042078487697,0.0,-36.08178314060666,39.13083384125371,39.13083384125371,36.621667843404914,36.621667843404914,41.66835997296465,41.66835997296465,0.0,-90.94854308741475,6.575770429394369,6.575770429394369,10.481551638520857,10.481551638520857,15.284869934891715,15.284869934891715,0.0,-22.141997593261127,False
7.374489,5.833767,414.482318,24.0,152.4115,120.110229,14470.060288,41.0,4.08043,3.578632,264.26489,25.0,90.0,0.0,4.277296843124204,4.277296843124204,5.428816280585972,5.428816280585972,6.504962426096631,6.504962426096631,0.0,-22.00435729847494,36.72301001471816,36.72301001471816,33.043907206682334,33.043907206682334,35.38448009678239,35.38448009678239,0.0,-108.30750154990699,6.7953091134771775,6.7953091134771775,10.905834191588369,10.905834191588369,16.238904592956136,16.238904592956136,0.0,-22.141997593261127,False
7.167958,5.676922,415.250263,25.0,159.872637,125.06319,15876.432384,43.0,4.366455,3.794593,277.502836,25.0,90.0,0.0,4.056218056588225,4.056218056588225,5.148457815876398,5.148457815876398,6.531111726871465,6.531111726871465,0.0,-17.311882017764365,40.60953063536497,40.60953063536497,36.16058964996142,36.16058964996142,44.35229491200573,44.35229491200573,0.0,-73.5895846249225,7.56781055425155,7.56781055425155,11.94827525330778,11.94827525330778,17.65369264970527,17.65369264970527,0.0,-22.141997593261127,False
7.092681,5.697269,434.640621,25.0,155.092691,120.875457,15533.272252,44.0,4.593375,4.051367,293.521919,24.0,90.0,0.0,3.975638638418222,3.975638638418222,5.184827822452609,5.184827822452609,7.191372948018452,7.191372948018452,0.0,-17.311882017764365,38.11964756599121,38.11964756599121,33.52543182856115,33.52543182856115,42.16411404259264,42.16411404259264,0.0,-56.23062616243024,8.18068015285489,8.18068015285489,13.187720158554287,13.187720158554287,19.365711063171613,19.365711063171613,0.0,-26.35379061371841,False
6.927734,5.6014,420.128384,25.0,157.762344,125.194345,15174.669087,42.0,4.530254,3.990298,293.760226,25.0,90.0,0.0,3.799072977075614,3.799072977075614,5.013463190789233,5.013463190789233,6.697216660486549,6.697216660486549,0.0,-17.311882017764365,39.510274950861856,39.510274950861856,36.2431197740323,36.2431197740323,39.877459760258965,39.877459760258965,0.0,-90.94854308741475,8.010201825984446,8.010201825984446,12.892940854892318,12.892940854892318,19.391179810169042,19.391179810169042,0.0,-22.141997593261127,False
7.358499,6.020677,431.96316,24.0,155.007182,124.916178,14954.996266,41.0,4.593763,4.074842,294.191447,24.0,90.0,0.0,4.260180527429659,4.260180527429659,5.7629155546391235,5.7629155546391235,7.100202704053206,7.100202704053206,0.0,-22.00435729847494,38.0751057633476,38.0751057633476,36.06808140704342,36.06808140704342,38.47670303003889,38.47670303003889,0.0,-108.30750154990699,8.181728070201347,8.181728070201347,13.3010336916638,13.3010336916638,19.437265987029065,19.437265987029065,0.0,-26.35379061371841,False
9.840767,7.456224,508.235378,23.0,147.756684,119.118543,14587.12517,42.0,4.815551,4.301097,309.103442,24.0,90.0,0.0,6.917296395251403,6.917296395251403,8.328937760883726,8.328937760883726,9.697348553359815,9.697348553359815,0.0,-26.696832579185514,34.29830740313007,34.29830740313007,32.41988243736845,32.41988243736845,36.13095123776125,36.13095123776125,0.0,-90.94854308741475,8.780737071325257,8.780737071325257,14.39316376338659,14.39316376338659,21.03096582749546,21.03096582749546,0.0,-26.35379061371841,False
10.831131,8.095937,531.416416,23.0,147.131232,116.288581,14529.978761,44.0,4.922663,4.398582,314.609433,24.0,90.0,0.0,7.97742040253805,7.97742040253805,9.472416702098018,9.472416702098018,10.486686246729619,10.486686246729619,0.0,-26.696832579185514,33.97250825278277,33.97250825278277,30.639110717068814,30.639110717068814,35.76655378226239,35.76655378226239,0.0,-56.23062616243024,9.070027078577155,9.070027078577155,14.86372264624839,14.86372264624839,21.61941136937698,21.61941136937698,0.0,-26.35379061371841,False
10.739092,8.012614,529.007734,24.0,135.098231,108.644454,12621.389702,41.0,4.935199,4.396401,324.462492,25.0,90.0,0.0,7.878898289954541,7.878898289954541,9.323477887631533,9.323477887631533,10.404668198446302,10.404668198446302,0.0,-22.00435729847494,27.704494876971058,27.704494876971058,25.828994825767502,25.828994825767502,23.596322811273772,23.596322811273772,0.0,-108.30750154990699,9.103884531812179,9.103884531812179,14.853194986367157,14.853194986367157,22.672444082733303,22.672444082733303,0.0,-22.141997593261127,False
10.780168,8.067804,524.560897,24.0,144.656807,117.521754,13776.8051,41.0,5.011097,4.450349,330.116341,25.0,90.0,0.0,7.9228676322603055,7.9228676322603055,9.422129318453822,9.422129318453822,10.253248919448893,10.253248919448893,0.0,-22.00435729847494,32.68357550878624,32.68357550878624,31.4150927283598,31.4150927283598,30.963897405075702,30.963897405075702,0.0,-108.30750154990699,9.30887120903233,9.30887120903233,15.113601311572353,15.113601311572353,23.27669175377404,23.27669175377404,0.0,-22.141997593261127,False
11.365962,8.76748,562.764341,23.0,140.938701,111.988426,13907.488442,42.0,5.061317,4.510875,336.319075,25.0,90.0,0.0,8.54992423238357,8.54992423238357,10.672791367955787,10.672791367955787,11.55411466867645,11.55411466867645,0.0,-26.696832579185514,30.746806938694238,30.746806938694238,27.933210631871546,27.933210631871546,31.797207461371435,31.797207461371435,0.0,-90.94854308741475,9.444506284133066,9.444506284133066,15.40575956098604,15.40575956098604,23.939600786821295,23.939600786821295,0.0,-22.141997593261127,False
12.256382,9.471517,593.559381,22.0,143.785481,115.070255,14189.485896,43.0,5.089384,4.505768,337.751826,25.0,90.0,0.0,9.503064308727396,9.503064308727396,11.93124865010526,11.93124865010526,12.602716799471061,12.602716799471061,0.0,-31.389307859896086,32.22970011870754,32.22970011870754,29.87247127565379,29.87247127565379,33.59538089856431,33.59538089856431,0.0,-73.5895846249225,9.52031014022332,9.52031014022332,15.381108135486985,15.381108135486985,24.092724164352475,24.092724164352475,0.0,-22.141997593261127,False
12.246431,9.410802,580.394069,20.0,141.622448,113.40187,14169.40237,43.0,5.26572,4.663753,350.36701,25.0,90.0,0.0,9.492412372675085,9.492412372675085,11.822721351276215,11.822721351276215,12.15442466490082,12.15442466490082,0.0,-40.77425842131724,31.102972066717665,31.102972066717665,28.82262932492367,28.82262932492367,33.46731710768209,33.46731710768209,0.0,-73.5895846249225,9.99656156600914,9.99656156600914,16.143699766085756,16.143699766085756,25.440955351947043,25.440955351947043,0.0,-22.141997593261127,False
12.654883,9.760049,609.858656,21.0,142.559225,117.401977,14488.222879,44.0,5.359638,4.764175,355.175078,24.0,90.0,0.0,9.92963522308589,9.92963522308589,12.446995970960774,12.446995970960774,13.157723530925452,13.157723530925452,0.0,-36.08178314060666,31.59094100864269,31.59094100864269,31.339722283688698,31.339722283688698,35.500294932070936,35.500294932070936,0.0,-56.23062616243024,10.250216981845686,10.250216981845686,16.628435511428606,16.628435511428606,25.954811291715767,25.954811291715767,0.0,-26.35379061371841,False
13.216419,10.051054,643.985628,22.0,134.106084,110.994796,13354.657651,43.0,5.344476,4.762607,355.096517,24.0,90.0,0.0,10.530725119887183,10.530725119887183,12.967163748210986,12.967163748210986,14.319781302461648,14.319781302461648,0.0,-31.389307859896086,27.187683595498434,27.187683595498434,27.307962588102285,27.307962588102285,28.272049239061648,28.272049239061648,0.0,-73.5895846249225,10.20926718079675,10.20926718079675,16.620866794925274,16.620866794925274,25.946415188232173,25.946415188232173,0.0,-26.35379061371841,False
13.090941,9.842679,641.095352,23.0,140.313425,116.832197,13979.711126,44.0,5.314344,4.723317,355.344802,24.0,90.0,0.0,10.396408605770842,10.396408605770842,12.594696056643787,12.594696056643787,14.221364493385105,14.221364493385105,0.0,-26.696832579185514,30.421099467085604,30.421099467085604,30.9811845680613,30.9811845680613,32.257739675721055,32.257739675721055,0.0,-56.23062616243024,10.127886135736308,10.127886135736308,16.431214453461045,16.431214453461045,25.97295032084791,25.97295032084791,0.0,-26.35379061371841,False
13.312037,10.182985,658.973123,24.0,143.094788,119.707232,14251.211167,44.0,5.446171,4.87158,364.02727,24.0,90.0,0.0,10.633078332775307,10.633078332775307,13.202988751287903,13.202988751287903,14.83012060360474,14.83012060360474,0.0,-22.00435729847494,31.86991680591802,31.86991680591802,32.790318762397355,32.790318762397355,33.98897573830967,33.98897573830967,0.0,-56.23062616243024,10.483926857466795,10.483926857466795,17.146878110944133,17.146878110944133,26.90087766165339,26.90087766165339,0.0,-26.35379061371841,False
13.54565,10.360916,692.169304,25.0,154.265736,126.652483,14812.873268,45.0,5.50367,4.908622,365.888749,24.0,90.0,0.0,10.883146741677749,10.883146741677749,13.521038175778571,13.521038175778571,15.960484004036873,15.960484004036873,0.0,-17.311882017764365,37.68888511519491,37.68888511519491,37.160662452942574,37.160662452942574,37.570447330943765,37.570447330943765,0.0,-38.871667699937994,10.639221186085223,10.639221186085223,17.325679384360217,17.325679384360217,27.099820779950544,27.099820779950544,0.0,-26.35379061371841,False
11.895285,9.257869,680.108929,26.0,158.803914,128.281886,15222.901216,43.0,5.425449,4.85073,364.659683,25.0,90.0,0.0,9.116532085565824,9.116532085565824,11.549355537361652,11.549355537361652,15.549816087282029,15.549816087282029,0.0,-12.61940673705379,40.052830768138364,40.052830768138364,38.18597473041179,38.18597473041179,40.185014782323314,40.185014782323314,0.0,-73.5895846249225,10.427960508875847,10.427960508875847,17.046235420195114,17.046235420195114,26.968465968731604,26.968465968731604,0.0,-22.141997593261127,False
12.308413,9.799415,688.422115,25.0,160.663528,131.768973,15580.009911,43.0,5.450294,4.865799,363.167061,25.0,90.0,0.0,9.558760307595621,9.558760307595621,12.517362200816725,12.517362200816725,15.832888444171056,15.832888444171056,0.0,-17.311882017764365,41.021507279163906,41.021507279163906,40.38024656721542,40.38024656721542,42.46213948834853,42.46213948834853,0.0,-73.5895846249225,10.495062329681858,10.495062329681858,17.118973295825665,17.118973295825665,26.80894395686957,26.80894395686957,0.0,-22.141997593261127,False
12.944831,10.421091,731.885347,25.0,159.79677,131.463233,15895.541381,47.0,5.434188,4.831602,361.113733,25.0,90.0,0.0,10.24000679925864,10.24000679925864,13.628600231399718,13.628600231399718,17.31285527280387,17.31285527280387,0.0,-17.311882017764365,40.57001136907532,40.57001136907532,40.18785771331407,40.18785771331407,44.474144561105035,44.474144561105035,0.0,-4.153750774953496,10.451562956532264,10.451562956532264,16.95390480203457,16.95390480203457,26.589497229183223,26.589497229183223,0.0,-22.141997593261127,False
13.834164,11.212479,766.083795,25.0,171.305648,140.129876,16221.031012,47.0,5.417186,4.797299,362.07062,25.0,90.0,0.0,11.191983308675638,11.191983308675638,15.043196327351646,15.043196327351646,18.4773468741354,18.4773468741354,0.0,-17.311882017764365,46.5650080656255,46.5650080656255,45.64139834895961,45.64139834895961,46.54964843620707,46.54964843620707,0.0,-4.153750774953496,10.40564365054137,10.40564365054137,16.78832464756149,16.78832464756149,26.691763267982488,26.691763267982488,0.0,-22.141997593261127,False
14.447967,11.321508,778.097061,25.0,174.851671,144.46201,16954.445686,45.0,5.330609,4.72614,353.758848,25.0,90.0,0.0,11.849021827891368,11.849021827891368,15.238084293489043,15.238084293489043,18.886410681988956,18.886410681988956,0.0,-17.311882017764365,48.41213826988095,48.41213826988095,48.36742142479897,48.36742142479897,51.22631046463187,51.22631046463187,0.0,-38.871667699937994,10.171814938932515,10.171814938932515,16.444841039359584,16.444841039359584,25.803453574316876,25.803453574316876,0.0,-22.141997593261127,False
14.326122,11.274513,749.506368,24.0,174.711758,143.710743,17411.898888,48.0,5.27233,4.683038,349.520307,25.0,90.0,0.0,11.718594217772422,11.718594217772422,15.154081322090363,15.154081322090363,17.912868786907975,17.912868786907975,0.0,-22.00435729847494,48.33925731894859,48.33925731894859,47.89468185161943,47.89468185161943,54.14328785193562,54.14328785193562,13.205207687538753,13.205207687538753,10.01441397234956,10.01441397234956,16.236788221294145,16.236788221294145,25.350465083138445,25.350465083138445,0.0,-22.141997593261127,False
14.711108,11.76873,792.950065,23.0,183.243058,148.254256,18245.30169,49.0,5.099103,4.537156,332.377606,24.0,90.0,0.0,12.130698152355317,12.130698152355317,16.037487993347792,16.037487993347792,19.392170429113843,19.392170429113843,0.0,-26.696832579185514,52.783227905592966,52.783227905592966,50.75371651753146,50.75371651753146,59.45753008987621,59.45753008987621,30.564166150031003,30.564166150031003,9.546559389424916,9.546559389424916,15.53261762120547,15.53261762120547,23.518361474676727,23.518361474676727,0.0,-26.35379061371841,False
14.202695,11.414737,760.053819,20.0,190.221192,153.847135,19216.407577,50.0,4.945012,4.382975,321.151442,24.0,90.0,0.0,11.586473173542856,11.586473173542856,15.40472995835824,15.40472995835824,18.272020117546013,18.272020117546013,0.0,-40.77425842131724,56.41815133410481,56.41815133410481,54.27307146231788,54.27307146231788,65.64984419036105,65.64984419036105,47.92312461252325,47.92312461252325,9.130387657896678,9.130387657896678,14.78838785130738,14.78838785130738,22.318579971541187,22.318579971541187,0.0,-26.35379061371841,False
14.203094,11.545124,768.71806,20.0,191.586159,155.369271,19223.989005,49.0,4.806215,4.256465,317.104253,24.0,90.0,0.0,11.586900278606151,11.586900278606151,15.637795080855527,15.637795080855527,18.567046250790785,18.567046250790785,0.0,-40.77425842131724,57.12916527098903,57.12916527098903,55.2308852927686,55.2308852927686,65.69818761421901,65.69818761421901,30.564166150031003,30.564166150031003,8.755522235380603,8.755522235380603,14.177725654345325,14.177725654345325,21.886041973531043,21.886041973531043,0.0,-26.35379061371841,False
14.389153,11.713146,776.351438,20.0,187.98095,151.447596,18595.87928,49.0,4.866346,4.32109,314.637281,24.0,90.0,0.0,11.786065042947087,11.786065042947087,15.938132292481221,15.938132292481221,18.826970460532376,18.826970460532376,0.0,-40.77425842131724,55.2512049654429,55.2512049654429,52.763146172523854,52.763146172523854,61.69300881874834,61.69300881874834,30.564166150031003,30.564166150031003,8.917925116720358,8.917925116720358,14.489669725791634,14.489669725791634,21.62238758772719,21.62238758772719,0.0,-26.35379061371841,False
16.036588,12.942493,820.52788,19.0,179.395536,142.824498,18371.272615,52.0,4.71891,4.185659,306.735474,25.0,90.0,0.0,13.549543313506476,13.549543313506476,18.13557459230156,18.13557459230156,20.331222808057316,20.331222808057316,0.0,-45.46673370202781,50.77904629206781,50.77904629206781,47.33700650712472,47.33700650712472,60.260791140572145,60.260791140572145,82.64104153750776,82.64104153750776,8.519727328338188,8.519727328338188,13.835945972754182,13.835945972754182,20.777892363895887,20.777892363895887,0.0,-22.141997593261127,False
16.8324,13.562823,812.82908,18.0,177.058603,142.652337,18375.925942,52.0,4.540676,3.975776,293.807357,25.0,90.0,0.0,14.401411320104863,14.401411320104863,19.244406664814488,19.244406664814488,20.069070913318377,20.069070913318377,0.0,-50.15920898273839,49.56173339544495,49.56173339544495,47.228673094825,47.228673094825,60.29046335529353,60.29046335529353,82.64104153750776,82.64104153750776,8.038349750172017,8.038349750172017,12.82284334146031,12.82284334146031,19.396216873766576,19.396216873766576,0.0,-22.141997593261127,False
17.241237,13.972491,823.769897,18.0,172.811388,140.481107,18224.228211,53.0,4.560604,3.990341,299.492947,25.0,90.0,0.0,14.839046289436395,14.839046289436395,19.976683062026012,19.976683062026012,20.441616752480588,20.441616752480588,0.0,-50.15920898273839,47.34935092909694,47.34935092909694,45.86241270607557,45.86241270607557,59.32315380516323,59.32315380516323,100.0,100.0,8.092171649347794,8.092171649347794,12.89314841535765,12.89314841535765,20.003856822409084,20.003856822409084,0.0,-22.141997593261127,False
16.925314,13.450485,786.340518,16.0,168.021651,133.597742,17119.051983,50.0,4.426492,3.882021,295.132414,25.0,90.0,0.0,14.500870066599111,14.500870066599111,19.043603902797564,19.043603902797564,19.167108696192333,19.167108696192333,0.0,-59.544159544159534,44.8543677089825,44.8543677089825,41.53101117753905,41.53101117753905,52.27593224901892,52.27593224901892,47.92312461252325,47.92312461252325,7.7299595587084005,7.7299595587084005,12.37028912221932,12.37028912221932,19.537830596780083,19.537830596780083,0.0,-22.141997593261127,False
16.362693,12.571483,706.018932,18.0,160.534023,126.794544,16384.503529,49.0,4.291853,3.787063,285.940514,25.0,90.0,0.0,13.898618743748504,13.898618743748504,17.472398883851184,17.472398883851184,16.432077787695302,16.432077787695302,0.0,-50.15920898273839,40.95404787545949,40.95404787545949,37.2500552473891,37.2500552473891,47.59204060539476,47.59204060539476,30.564166150031003,30.564166150031003,7.366324137033999,7.366324137033999,11.911928036936551,11.911928036936551,18.55545838142037,18.55545838142037,0.0,-22.141997593261127,False
14.915339,11.058481,672.821617,21.0,148.833102,117.999906,15815.179576,50.0,4.224544,3.73777,281.884327,25.0,90.0,0.0,12.349314929754495,12.349314929754495,14.767926839332615,14.767926839332615,15.301675773420929,15.301675773420929,0.0,-36.08178314060666,34.85901561066403,34.85901561066403,31.715972937919044,31.715972937919044,43.961712760512,43.961712760512,47.92312461252325,47.92312461252325,7.184534784784782,7.184534784784782,11.673991338850623,11.673991338850623,18.12195873400217,18.12195873400217,0.0,-22.141997593261127,False
14.263113,10.522023,651.390688,22.0,149.156312,117.983941,15973.903858,50.0,4.112261,3.599673,276.613584,25.0,90.0,0.0,11.651146942250366,11.651146942250366,13.809014911880874,13.809014911880874,14.571931054326296,14.571931054326296,0.0,-31.389307859896086,35.02737632161189,35.02737632161189,31.70592685937998,31.70592685937998,44.973827528505296,44.973827528505296,47.92312461252325,47.92312461252325,6.881278848155229,6.881278848155229,11.007398836962482,11.007398836962482,17.558655012518937,17.558655012518937,0.0,-22.141997593261127,False
13.781189,9.878672,629.322493,23.0,154.89632,121.802235,15545.083988,47.0,4.068602,3.538503,267.209953,24.0,90.0,0.0,11.13527681562257,11.13527681562257,12.659033091425204,12.659033091425204,13.820486786035332,13.820486786035332,0.0,-26.696832579185514,38.01735753421763,38.01735753421763,34.10861282300414,34.10861282300414,42.2394322755095,42.2394322755095,0.0,-4.153750774953496,6.76336383931765,6.76336383931765,10.712132007556352,10.712132007556352,16.55365432518603,16.55365432518603,0.0,-26.35379061371841,False
13.613093,9.704608,613.73739,23.0,145.93965,117.563336,14650.529708,46.0,4.089788,3.566565,268.816559,24.0,90.0,0.0,10.955340342640053,10.955340342640053,12.347895880795557,12.347895880795557,13.289798330542062,13.289798330542062,0.0,-26.696832579185514,33.35181089604055,33.35181089604055,31.441258468279106,31.441258468279106,36.535254022810825,36.535254022810825,0.0,-21.512709237445744,6.820583367415704,6.820583367415704,10.84758693263065,10.84758693263065,16.725358227037685,16.725358227037685,0.0,-26.35379061371841,False
13.383555,9.465506,591.187815,24.0,139.064891,110.972291,13832.717048,45.0,4.029122,3.482395,265.239333,24.0,90.0,0.0,10.709633971664772,10.709633971664772,11.92050406321139,11.92050406321139,12.521962588373428,12.521962588373428,0.0,-22.00435729847494,29.770735703951562,29.770735703951562,27.293801172660903,27.293801172660903,31.32042324702643,31.32042324702643,0.0,-38.871667699937994,6.656735548497713,6.656735548497713,10.441299389208814,10.441299389208814,16.343046906150555,16.343046906150555,0.0,-26.35379061371841,False
17.44022,11.303997,739.170433,26.0,138.259586,110.936409,13920.295103,46.0,4.63222,3.844837,275.526809,24.0,90.0,0.0,15.052045404248643,15.052045404248643,15.206783601241735,15.206783601241735,17.560919789122792,17.560919789122792,0.0,-12.61940673705379,29.35125077981602,29.35125077981602,27.271222194261966,27.271222194261966,31.87886989237102,31.87886989237102,0.0,-21.512709237445744,8.285593424306269,8.285593424306269,12.190802416568882,12.190802416568882,17.442507364660763,17.442507364660763,0.0,-26.35379061371841,False
19.369925,12.802352,746.896836,24.0,135.165018,107.182466,13650.437908,46.0,4.680118,3.813603,266.323333,23.0,90.0,0.0,17.11767642221888,17.11767642221888,17.885074317489714,17.885074317489714,17.824011593815296,17.824011593815296,0.0,-22.00435729847494,27.739284353788218,27.739284353788218,24.909029509689972,24.909029509689972,30.158109534426874,30.158109534426874,0.0,-21.512709237445744,8.414957200235683,8.414957200235683,12.040036286935548,12.040036286935548,16.45889797953581,16.45889797953581,0.0,-30.565583634175685,False
18.201098,11.651698,714.367716,24.0,133.125819,103.176496,13028.151046,45.0,4.721893,3.860302,262.993986,22.0,90.0,0.0,15.866518703375279,15.866518703375279,15.828294765371822,15.828294765371822,16.716362292340982,16.716362292340982,0.0,-22.00435729847494,26.677061670690144,26.677061670690144,22.38824722061022,22.38824722061022,26.190060569124853,26.190060569124853,0.0,-38.871667699937994,8.527783868143555,8.527783868143555,12.26545177927553,12.26545177927553,16.103078400548746,16.103078400548746,0.0,-34.77737665463297,False
17.355267,10.922111,668.716919,24.0,125.176741,94.132972,11987.955458,45.0,4.591651,3.697087,251.816155,22.0,90.0,0.0,14.961108420683992,14.961108420683992,14.52416717958927,14.52416717958927,15.161906671998478,15.161906671998478,0.0,-22.00435729847494,22.536371644206266,22.536371644206266,16.697551801007066,16.697551801007066,19.55719190561266,19.55719190561266,0.0,-38.871667699937994,8.176023942789703,8.176023942789703,11.477615003707099,11.477615003707099,14.908462423178822,14.908462423178822,0.0,-34.77737665463297,False
16.553661,9.942756,640.767385,25.0,123.718516,92.436314,11727.290049,46.0,4.386854,3.450707,232.694834,23.0,90.0,0.0,14.103038291938377,14.103038291938377,12.773582435379097,12.773582435379097,14.21019688668512,14.21019688668512,0.0,-17.311882017764365,21.776779435667173,21.776779435667173,15.629918883879512,15.629918883879512,17.895043514518257,17.895043514518257,0.0,-21.512709237445744,7.622904538659752,7.622904538659752,10.288341807220561,10.288341807220561,12.86489640621015,12.86489640621015,0.0,-30.565583634175685,False
